Time,Amplitude
0.0,1.0905638759432192
0.0010000166669444492,1.0860857546044662
0.0020000333338888983,1.07579348210142
0.0030000500008333475,1.0596042623868918
0.004000066667777797,1.037590450365517
0.005000083334722245,1.0101656247531305
0.006000100001666695,0.9777460416894364
0.0070001166686111446,0.940748909476476
0.008000133335555593,0.8995923885786292
0.009000150002500042,0.8546955916226124
0.01000016666944449,0.8064785833974808
0.011000183336388941,0.7553689292744209
0.01200020000333339,0.7018214586231935
0.013000216670277839,0.6462985606073478
0.014000233337222289,0.5892635765527925
0.015000250004166738,0.531180799947774
0.016000266671111187,0.4725154764428759
0.017000283338055637,0.4137338038510199
0.018000300005000084,0.3553029321474647
0.019000316671944534,0.297690963469807
0.02000033333888898,0.24136695211798068
0.021000350005833432,0.18680075953132005
0.022000366672777882,0.13438366093748927
0.02300038333972233,0.08430076257292192
0.02400040000666678,0.03670695240258697
0.02500041667361123,-0.008258767758777574
0.026000433340555677,-0.05047331437924759
0.027000450007500128,-0.08982952220971334
0.028000466674444578,-0.126236144283879
0.029000483341389025,-0.15961785191826258
0.030000500008333476,-0.18991523471219618
0.031000516675277923,-0.2170984945262651
0.03200053334222237,-0.24120927204024417
0.033000550009166824,-0.26231919503008533
0.034000566676111274,-0.2805158095558206
0.03500058334305572,-0.29590257996029556
0.03600060001000017,-0.30859888886916975
0.03700061667694462,-0.3187400371909172
0.03800063334388907,-0.3264772441168257
0.03900065001083352,-0.3319776471209969
0.04000066667777796,-0.33542430196034684
0.04100068334472241,-0.3369945166834345
0.042000700011666864,-0.33679327928331926
0.043000716678611314,-0.3349190357340355
0.044000733345555765,-0.3314861502876642
0.045000750012500215,-0.3266249054791001
0.04600076667944466,-0.3204815021260525
0.04700078334638911,-0.3132180593290442
0.04800080001333356,-0.3049984280794497
0.04900081668027801,-0.29588320067993734
0.05000083334722246,-0.2859501761416344
0.051000850014166904,-0.27529659848731286
0.052000866681111355,-0.26407328924950757
0.053000883348055805,-0.25243807808348334
0.054000900015000255,-0.24053980502532732
0.055000916681944706,-0.22851832048534676
0.056000933348889156,-0.21650448524806873
0.0570009500158336,-0.20462017047224004
0.05800096668277805,-0.1929782576908276
0.0590009833497225,-0.18168263881101787
0.06000100001666695,-0.17082821611421747
0.0610010166836114,-0.16049422230749244
0.062001033350555845,-0.15072344925730521
0.0630010500175003,-0.14154264856776264
0.06400106668444475,-0.13296958221218486
0.0650010833513892,-0.12501302253811228
0.06600110001833365,-0.11767275226730498
0.0670011166852781,-0.11093956449574306
0.06800113335222255,-0.10479526269362624
0.069001150019167,-0.0992126607053741
0.07000116668611144,-0.09415558274962661
0.07100118335305589,-0.08958227536326348
0.07200120002000034,-0.08545608008351788
0.07300121668694479,-0.08173498266406279
0.07400123335388924,-0.07836797923686988
0.07500125002083369,-0.07529507630813072
0.07600126668777814,-0.0724472907582567
0.07700128335472259,-0.06974664984187905
0.07800130002166704,-0.06713183983410784
0.07900131668861149,-0.06466282566836527
0.08000133335555593,-0.062342652492530695
0.08100135002250038,-0.06016358465756925
0.08200136668944483,-0.05812183686436083
0.08300138335638928,-0.05621515088886181
0.08400140002333373,-0.05444194785841112
0.08500141669027818,-0.05280132825031643
0.08600143335722263,-0.05129307189185374
0.08700145002416708,-0.04991763796026784
0.08800146669111153,-0.048676164982771775
0.08900148335805598,-0.047570470836547515
0.09000150002500043,-0.04660305274874524
0.09100151669194487,-0.04577341197198797
0.09200153335888932,-0.04506642001786109
0.09300155002583377,-0.044463642297259416
0.09400156669277822,-0.04394732356162203
0.09500158335972267,-0.04350038791235672
0.09600160002666712,-0.04310643880084007
0.09700161669361157,-0.042749759028416844
0.09800163336055602,-0.04241531074640072
0.09900165002750047,-0.042088735456073494
0.10000166669444492,-0.041756354008685895
0.10100168336138937,-0.041403216111146245
0.10200170002833381,-0.041006883629737055
0.10300171669527826,-0.04054345965267131
0.10400173336222271,-0.03998972659213283
0.10500175002916716,-0.03932314621027382
0.10600176669611161,-0.038521859619215115
0.10700178336305606,-0.03756468728104603
0.10800180003000051,-0.03643112900782457
0.10900181669694496,-0.03510136396157717
0.11000183336388941,-0.03355625065429883
0.11100185003083386,-0.031786003844200904
0.11200186669777831,-0.02981385599426335
0.11300188336472275,-0.027661098217869218
0.1140019000316672,-0.02535784901991883
0.11500191669861165,-0.022935116024679583
0.1160019333655561,-0.020423949234284314
0.11700195003250055,-0.017855441028730587
0.118001966699445,-0.015260726165880988
0.11900198336638945,-0.012670981781463147
0.1200020000333339,-0.010117427389069598
0.12100201670027835,-0.007625583713836587
0.1220020333672228,-0.005196774543343826
0.12300205003416724,-0.002825970061339708
0.12400206670111169,-0.0005081827940617151
0.12500208336805615,0.00176153235438729
0.1260021000350006,0.003988078102039841
0.12700211670194506,0.006176314789063143
0.1280021333688895,0.008331060377759852
0.12900215003583393,0.01045709045256718
0.1300021667027784,0.012559138220057619
0.13100218336972283,0.014644650676277734
0.1320022000366673,0.016732721554974392
0.13300221670361173,0.018845500492929067
0.1340022333705562,0.021005094770749633
0.13500225003750063,0.023233569291179056
0.1360022667044451,0.025552946579095112
0.13700228337138953,0.027985206781510882
0.138002300038334,0.030552287667574268
0.13900231670527843,0.03327608462856819
0.14000233337222287,0.03617845067791073
0.14100235003916733,0.03927098510510457
0.14200236670611177,0.04252174223199885
0.14300238337305624,0.04588715140020276
0.14400240004000067,0.04932359947262459
0.14500241670694514,0.05278743093430754
0.14600243337388957,0.05623494789243024
0.14700245004083404,0.05962241007630592
0.14800246670777847,0.062906034837383
0.14900248337472294,0.06604199714924486
0.15000250004166737,0.06898642960760995
0.1510025167086118,0.07171373444097755
0.15200253337555628,0.07427663691023358
0.1530025500425007,0.07674877872395307
0.15400256670944518,0.07920375943628354
0.1550025833763896,0.08171513622350732
0.15600260004333408,0.08435642388404181
0.15700261671027851,0.08720109483843928
0.15800263337722298,0.09032257912938739
0.15900265004416742,0.09379426442170846
0.16000266671111185,0.0976894960023599
0.16100268337805632,0.10205719453578427
0.16200270004500075,0.10684201067448526
0.16300271671194522,0.11197326509878636
0.16400273337888965,0.11737035723401422
0.16500275004583412,0.12294639568112087
0.16600276671277855,0.1286145155275842
0.16700278337972302,0.1342878783474071
0.16800280004666746,0.13987967220111858
0.16900281671361192,0.14530311163577325
0.17000283338055636,0.15047143768495141
0.1710028500475008,0.15532081585009685
0.17200286671444526,0.1598863159207748
0.1730028833813897,0.1642297176870455
0.17400290004833416,0.16841282783597755
0.1750029167152786,0.1724974795411657
0.17600293338222306,0.17654553246272986
0.1770029500491675,0.18061887274731606
0.17800296671611196,0.18477941302809578
0.1790029833830564,0.18908909242476568
0.18000300005000086,0.19360987654354872
0.1810030167169453,0.19838668568404486
0.18200303338388973,0.20339041447096165
0.1830030500508342,0.20857191009948478
0.18400306671777863,0.21388204588635673
0.1850030833847231,0.21927172163484623
0.18600310005166754,0.22469186363474686
0.187003116718612,0.2300934246623787
0.18800313338555644,0.23542738398058685
0.1890031500525009,0.2406447473387421
0.19000316671944534,0.24569654697274126
0.1910031833863898,0.25054473830591906
0.19200320005333424,0.25519878326875495
0.19300321672027868,0.2596810989798319
0.19400323338722314,0.26401412931950663
0.19500325005416758,0.26822034465466194
0.19600326672111204,0.2723222418387054
0.19700328338805648,0.27634234421157117
0.19800330005500094,0.28030320159971844
0.19900331672194538,0.2842273903161321
0.20000333338888984,0.288137513160323
0.20100335005583428,0.2920528971667267
0.20200336672277874,0.295978465724328
0.20300338338972318,0.2999152390470375
0.20400340005666762,0.30386426466445743
0.20500341672361208,0.30782661659271504
0.20600343339055652,0.3118033953344635
0.20700345005750098,0.31579572787888144
0.20800346672444542,0.3198047677016731
0.20900348339138988,0.3238316947650686
0.21000350005833432,0.32787771551782363
0.21100351672527878,0.3319391379995394
0.21200353339222322,0.33599064322528616
0.21300355005916768,0.3400009893393374
0.21400356672611212,0.34393896080296
0.21500358339305656,0.3477733685639452
0.21600360006000102,0.351473050056611
0.21700361672694546,0.35500686920180063
0.21800363339388992,0.35834371640688295
0.21900365006083436,0.36145250856575256
0.22000366672777882,0.3643021890588292
0.22100368339472326,0.36687031584697793
0.22200370006166772,0.36917240367598153
0.22300371672861216,0.37123446207455607
0.22400373339555663,0.37308252739943787
0.22500375006250106,0.37474266249388927
0.2260037667294455,0.37624095668769775
0.22700378339638996,0.3776035257971768
0.2280038000633344,0.378856512125165
0.22900381673027886,0.38002608446102754
0.2300038333972233,0.3811384380806538
0.23100385006416777,0.3822154086193507
0.2320038667311122,0.3832593988096686
0.23300388339805667,0.38426744318186606
0.2340039000650011,0.38523660255250713
0.23500391673194554,0.3861639642246821
0.23600393339889,0.38704664198800653
0.23700395006583444,0.3878817761186214
0.2380039667327789,0.38866653337919393
0.23900398339972334,0.3893981070189164
0.2400040000666678,0.39007371677350683
0.24100401673361224,0.39068902568761954
0.2420040334005567,0.3912326676511048
0.24300405006750114,0.39169133823050195
0.2440040667344456,0.39205175939638115
0.24500408340139004,0.39230067960583775
0.24600410006833448,0.3924248738024923
0.24700411673527894,0.39241114341649114
0.24800413340222338,0.3922463163645071
0.24900415006916785,0.39191724704973785
0.2500041667361123,0.391410697232126
0.25100418340305675,0.3907060204384914
0.2520042000700012,0.389801488574789
0.2530042167369456,0.3887066297437589
0.2540042334038901,0.38743094099050485
0.25500425007083455,0.3859838881495311
0.256004266737779,0.38437490584474343
0.2570042834047234,0.3826133974894483
0.25800430007166786,0.3807087352863534
0.25900431673861235,0.3786702602275676
0.2600043334055568,0.37650728209460055
0.2610043500725012,0.3742261868311951
0.26200436673944566,0.37182032094154877
0.26300438340639015,0.36927934466373435
0.2640044000733346,0.36659288683178765
0.265004416740279,0.3637505450691459
0.26600443340722346,0.3607418857886466
0.2670044500741679,0.35755644419252886
0.2680044667411124,0.3541837242724327
0.2690044834080568,0.35061319880939923
0.27000450007500126,0.3468343093738702
0.2710045167419457,0.3428431772127484
0.2720045334088902,0.338666207926278
0.27300455007583463,0.3343383322111826
0.27400456674277907,0.329894450058522
0.2750045834097235,0.32536943024875786
0.276004600076668,0.32079811035175226
0.27700461674361243,0.3162152967267686
0.27800463341055687,0.31165576452247135
0.2790046500775013,0.3071542576769259
0.28000466674444574,0.3027454889175988
0.28100468341139023,0.29845630775182985
0.28200470007833467,0.29427799231870644
0.2830047167452791,0.2901917136366382
0.28400473341222354,0.28617861085312035
0.28500475007916803,0.2822197919050488
0.28600476674611247,0.27829633351872163
0.2870047834130569,0.2743892812098368
0.28800480008000134,0.2704796492834941
0.2890048167469458,0.26654842083419406
0.2900048334138903,0.26257654774583794
0.2910048500808347,0.258546431718041
0.29200486674777915,0.2544471942655671
0.2930048834147236,0.2502698482451304
0.2940049000816681,0.2460053754422262
0.2950049167486125,0.24164472643175106
0.29600493341555695,0.23717882057800288
0.2970049500825014,0.23259854603468014
0.2980049667494459,0.2278947597448828
0.2990049834163903,0.22305828744111145
0.30000500008333475,0.21807992364526804
0.3010050167502792,0.2129570501808381
0.3020050334172236,0.2077172704925304
0.3030050500841681,0.20239676391483724
0.30400506675111255,0.19703167645148698
0.305005083418057,0.1916581228956096
0.3060051000850014,0.1863121868297355
0.3070051167519459,0.18102992062579623
0.30800513341889035,0.17584734544512481
0.3090051500858348,0.17080045123845472
0.3100051667527792,0.16592519674592093
0.31100518341972366,0.161247688261744
0.31200520008666816,0.15674882607994287
0.3130052167536126,0.1523964988424227
0.31400523342055703,0.14815856284078996
0.31500525008750146,0.1440028431560522
0.31600526675444596,0.13989713365861772
0.3170052834213904,0.13580919700829602
0.31800530008833483,0.1317067646542976
0.31900531675527927,0.12755753683523413
0.3200053334222237,0.12332918257911821
0.3210053500891682,0.11899704186256908
0.32200536675611263,0.11457201154553934
0.32300538342305707,0.11007522890743995
0.3240054000900015,0.10552780100484649
0.325005416756946,0.10095080368373685
0.32600543342389043,0.09636528157948905
0.32700545009083487,0.09179224811688233
0.3280054667577793,0.08725268551009731
0.3290054834247238,0.0827675447627153
0.33000550009166824,0.07835774566771903
0.3310055167586127,0.07404129408309079
0.3320055334255571,0.06982278459617142
0.33300555009250155,0.06570290146339362
0.33400556675944604,0.06168229732321853
0.3350055834263905,0.05776159360350933
0.3360056000933349,0.05394138052152952
0.33700561676027935,0.05022221708394396
0.33800563342722384,0.046604631086818844
0.3390056500941683,0.04308911911562064
0.3400056667611127,0.039676146545217644
0.34100568342805715,0.03636539819083143
0.3420057000950016,0.033153033822818236
0.3430057167619461,0.03003416454116353
0.3440057334288905,0.027003870118887968
0.34500575009583495,0.024057199118413683
0.3460057667627794,0.021189168891563137
0.3470057834297239,0.01839476557956072
0.3480058000966683,0.015668944113031054
0.34900581676361275,0.013006620012511398
0.3500058334305572,0.010401704153514936
0.3510058500975017,0.007848108512759088
0.3520058667644461,0.005344872512619099
0.35300588343139055,0.0028925106531441282
0.354005900098335,0.000491545135427005
0.35500591676527943,-0.0018574943207144978
0.3560059334322239,-0.0041540704767371725
0.35700595009916836,-0.00639763857537296
0.3580059667661128,-0.008587646340628245
0.35900598343305723,-0.010723533977784586
0.3600060001000017,-0.012804734173398015
0.36100601676694616,-0.01483068145677452
0.3620060334338906,-0.016800846882864116
0.36300605010083503,-0.018714706929326867
0.36400606676777947,-0.020571730556839415
0.36500608343472396,-0.022371379207353603
0.3660061001016684,-0.024113106804095816
0.36700611676861283,-0.025796359751567438
0.36800613343555727,-0.027420576935544505
0.36900615010250176,-0.028985189723077898
0.3700061667694462,-0.030489621962493312
0.37100618343639064,-0.03193363612958085
0.37200620010333507,-0.03331862313305036
0.37300621677027956,-0.034646449199081976
0.374006233437224,-0.0359189731053996
0.37500625010416844,-0.037138046111001966
0.3760062667711129,-0.038305511956162434
0.3770062834380573,-0.03942320686242946
0.3780063001050018,-0.040492959532625925
0.37900631677194624,-0.04151659115084986
0.3800063334388907,-0.04249591538247385
0.3810063501058351,-0.04343274115125024
0.3820063667727796,-0.044328883046853944
0.38300638343972404,-0.045186152048953154
0.3840064001066685,-0.04600635161910426
0.3850064167736129,-0.04679127770013857
0.38600643344055735,-0.04754271871616215
0.38700645010750184,-0.04826245557255575
0.3880064667744463,-0.04895226165597502
0.3890064834413907,-0.04961390283435065
0.39000650010833515,-0.050249137456887694
0.39100651677527964,-0.05085940249125168
0.3920065334422241,-0.05144463052333675
0.3930065501091685,-0.052004300878383
0.39400656677611295,-0.05253788528757374
0.3950065834430574,-0.05304484796336682
0.3960066001100019,-0.05352464559949519
0.3970066167769463,-0.053976727370966454
0.39800663344389076,-0.05440053493406297
0.3990066501108352,-0.05479550242634218
0.4000066667777797,-0.05516105646663595
0.4010066834447241,-0.05549745586780802
0.40200670011166856,-0.05580892089165717
0.403006716778613,-0.05610078515075655
0.4040067334455575,-0.05637837173588627
0.4050067501125019,-0.05664699629182961
0.40600676677944636,-0.05691196694464502
0.4070067834463908,-0.05717858430166568
0.40800680011333523,-0.05745214145149953
0.4090068167802797,-0.05773792396402934
0.41000683344722416,-0.058041209890412684
0.4110068501141686,-0.058364804231332314
0.41200686678111303,-0.058699638957268006
0.4130068834480575,-0.05903307354529602
0.41400690011500196,-0.05935245925959973
0.4150069167819464,-0.05964513984563695
0.41600693344889084,-0.059898451530140714
0.4170069501158353,-0.06009972302111856
0.41800696678277977,-0.0602362755078529
0.4190069834497242,-0.0602954226609011
0.42000700011666864,-0.060264470632095044
0.4210070167836131,-0.060135238141646986
0.42200703345055757,-0.05992138835247537
0.423007050117502,-0.059643171583004445
0.42400706678444644,-0.05932083200754947
0.4250070834513909,-0.05897460628170049
0.42600710011833537,-0.058624723542322295
0.4270071167852798,-0.05829140540755439
0.42800713345222424,-0.05799486597681132
0.4290071501191687,-0.05775531183078211
0.4300071667861131,-0.05759294203143087
0.4310071834530576,-0.05752478662734064
0.43200720012000204,-0.05755251475180157
0.4330072167869465,-0.05767313387973388
0.4340072334538909,-0.05788364293058663
0.4350072501208354,-0.05818103330508369
0.43600726678777985,-0.05856228888522376
0.4370072834547243,-0.05902438603428027
0.4380073001216687,-0.059564293596801515
0.43900731678861316,-0.060178972898610614
0.44000733345555765,-0.060865377746805414
0.4410073501225021,-0.061616421577609194
0.4420073667894465,-0.06240533627700282
0.44300738345639096,-0.0631993557629211
0.44400740012333545,-0.06396570501081647
0.4450074167902799,-0.06467160147741631
0.4460074334572243,-0.06528425510072233
0.44700745012416876,-0.0657708683000116
0.44800746679111325,-0.06609861869674502
0.4490074834580577,-0.06623373145497806
0.4500075001250021,-0.06614270741516892
0.45100751679194656,-0.06580356658798664
0.452007533458891,-0.06524832459108484
0.4530075501258355,-0.06452550917173563
0.4540075667927799,-0.06368364943623009
0.45500758345972436,-0.062771271668417
0.4560076001266688,-0.06183689932970313
0.4570076167936133,-0.06092905305905336
0.45800763346055773,-0.06009625067299029
0.45900765012750216,-0.05938700716559455
0.4600076667944466,-0.05884983470850463
0.46100768346139104,-0.058521579372505204
0.46200770012833553,-0.058381667231466296
0.46300771679527997,-0.05839188281107339
0.4640077334622244,-0.058514003063929614
0.46500775012916884,-0.058709802120196254
0.46600776679611333,-0.05894105128759247
0.46700778346305777,-0.05916951905139526
0.4680078001300022,-0.05935697107443974
0.46900781679694664,-0.05946517019711868
0.4700078334638911,-0.059455876437383134
0.47100785013083557,-0.05929867610678472
0.47200786679778,-0.059001869988723886
0.47300788346472444,-0.05858570303769486
0.4740079001316689,-0.05807042080369861
0.47500791679861337,-0.05747626601429412
0.4760079334655578,-0.05682347857459793
0.47700795013250225,-0.056132295567285044
0.4780079667994467,-0.05542295125258793
0.4790079834663912,-0.05471567706829725
0.4800080001333356,-0.054030701629761486
0.48100801680028005,-0.053386269019884136
0.4820080334672245,-0.05279077576074903
0.4830080501341689,-0.05224956425085146
0.4840080668011134,-0.05176797314020937
0.48500808346805785,-0.05135133825639843
0.4860081001350023,-0.05100499260455254
0.4870081168019467,-0.05073426636736307
0.4880081334688912,-0.050544486905079664
0.48900815013583565,-0.05044097875550996
0.4900081668027801,-0.05042906363401924
0.4910081834697245,-0.05050939567247687
0.49200820013666896,-0.050659347089367174
0.49300821680361345,-0.05084904003165009
0.4940082334705579,-0.05104859149366317
0.4950082501375023,-0.051228115647301904
0.49600826680444676,-0.05135772384201965
0.49700828347139125,-0.05140752460482774
0.4980083001383357,-0.05134762364029552
0.4990083168052801,-0.05114812383055011
0.5000083334722246,-0.05077912523527671
0.501008350139169,-0.050220006365706955
0.5020083668061135,-0.04949670883020016
0.5030083834730579,-0.04864981262718871
0.5040084001400024,-0.047719913398617204
0.5050084168069469,-0.046747603963988395
0.5060084334738912,-0.04577347432036285
0.5070084501408357,-0.04483811164235894
0.5080084668077802,-0.04398210028215318
0.5090084834747246,-0.043246021769480066
0.5100085001416691,-0.04267045481163172
0.5110085168086135,-0.04228709472810568
0.512008533475558,-0.042082911672942105
0.5130085501425025,-0.042030826052331
0.5140085668094468,-0.04210375039934596
0.5150085834763913,-0.042274594424618554
0.5160086001433357,-0.04251626501633818
0.5170086168102802,-0.042801666240252306
0.5180086334772247,-0.043103699339666214
0.5190086501441691,-0.04339526273544321
0.5200086668111136,-0.043649252026004434
0.5210086834780581,-0.043841904642256964
0.5220087001450024,-0.04396637557079735
0.5230087168119469,-0.04402115511690046
0.5240087334788913,-0.04400473278957827
0.5250087501458358,-0.04391559527540063
0.5260087668127803,-0.04375222643849558
0.5270087834797247,-0.043513107320549145
0.5280088001466692,-0.043196716140804926
0.5290088168136136,-0.04280152829606468
0.530008833480558,-0.0423260163606882
0.5310088501475025,-0.04177096615548852
0.5320088668144469,-0.04114893093250694
0.5330088834813914,-0.040476190942783374
0.5340089001483358,-0.03976902510776988
0.5350089168152803,-0.03904370952647624
0.5360089334822248,-0.03831651747547045
0.5370089501491692,-0.037603719408878286
0.5380089668161137,-0.036921582958383325
0.5390089834830581,-0.03628637293322743
0.5400090001500025,-0.03571435132021004
0.541009016816947,-0.03521868897602385
0.5420090334838914,-0.03479678757942849
0.5430090501508359,-0.03444102770859836
0.5440090668177804,-0.03414378500351083
0.5450090834847248,-0.033897432281701126
0.5460091001516693,-0.03369433953826227
0.5470091168186136,-0.033526873945845595
0.5480091334855581,-0.03338739985465991
0.5490091501525026,-0.03326827879247231
0.550009166819447,-0.03316331929873273
0.5510091834863915,-0.033068808177956655
0.552009200153336,-0.03296882112368066
0.5530092168202804,-0.032844764743314034
0.5540092334872249,-0.032678041283102637
0.5550092501541692,-0.0324500495383794
0.5560092668211137,-0.03214218485356388
0.5570092834880582,-0.031735839122162525
0.5580093001550026,-0.031212400786768776
0.5590093168219471,-0.03055325483906264
0.5600093334888915,-0.029739782819811218
0.561009350155836,-0.02876059986932581
0.5620093668227805,-0.027641602118612885
0.5630093834897248,-0.026420654898267046
0.5640094001566693,-0.02513562567202987
0.5650094168236138,-0.023824378452730305
0.5660094334905582,-0.022524773802283574
0.5670094501575027,-0.021274668831692364
0.5680094668244471,-0.020111917201045583
0.5690094834913916,-0.019074369119519482
0.5700095001583361,-0.018199871345376796
0.5710095168252804,-0.017518459970432457
0.5720095334922249,-0.017019762076235817
0.5730095501591693,-0.01668036897091134
0.5740095668261138,-0.016476862127846707
0.5750095834930583,-0.016385819569516902
0.5760096001600027,-0.01638381586748336
0.5770096168269472,-0.016447422142394426
0.5780096334938916,-0.01655320606398563
0.579009650160836,-0.016677731851078667
0.5800096668277805,-0.01679756027158275
0.5810096834947249,-0.016887350112370657
0.5820097001616694,-0.016911886139616486
0.5830097168286139,-0.016832751952641084
0.5840097334955583,-0.016611526056234442
0.5850097501625028,-0.016209783504273465
0.5860097668294472,-0.015589095899721777
0.5870097834963917,-0.014711031394630092
0.5880098001633361,-0.013537154690135726
0.5890098168302805,-0.012029027036463004
0.590009833497225,-0.010148206232922882
0.5910098501641694,-0.007872420112325312
0.5920098668311139,-0.005263864318704812
0.5930098834980584,-0.0024122177403036963
0.5940099001650028,0.000592829373960763
0.5950099168319473,0.0036615902260840535
0.5960099334988918,0.006704381468975347
0.5970099501658361,0.009631523206456192
0.5980099668327806,0.012353338993262228
0.599009983499725,0.01478015583504155
0.6000100001666695,0.016822304188355616
0.601010016833614,0.018415514060918556
0.6020100335005584,0.01962878520887453
0.6030100501675029,0.02057475145866162
0.6040100668344472,0.02136610107515799
0.6050100835013917,0.022115527516621006
0.6060101001683362,0.022935727692221727
0.6070101168352806,0.023939401962044183
0.6080101335022251,0.025239254137085346
0.6090101501691695,0.02694799147925568
0.610010166836114,0.029178324701378638
0.6110101835030585,0.03201468139103901
0.6120102001700028,0.035392402148344417
0.6130102168369473,0.039197887883923595
0.6140102335038918,0.04331751404533617
0.6150102501708362,0.047637659531055095
0.6160102668377807,0.05204470669046635
0.6170102835047251,0.05642504132386914
0.6180103001716696,0.06066505268247584
0.6190103168386141,0.06465113346841206
0.6200103335055585,0.06826967983471628
0.621010350172503,0.07143353135621688
0.6220103668394473,0.07419552646123986
0.6230103835063918,0.07665466730682338
0.6240104001733363,0.07891036002802557
0.6250104168402807,0.08108069808511598
0.6260104335072252,0.08326718842989958
0.6270104501741697,0.08555749444344053
0.6280104668411141,0.08803941281629125
0.6290104835080585,0.09080087354849237
0.6300105001750029,0.09392993994957304
0.6310105168419474,0.09749856878028451
0.6320105335088919,0.10149246888343215
0.6330105501758363,0.10586887454276407
0.6340105668427808,0.11058513488214486
0.6350105835097252,0.11559873233492729
0.6360106001766697,0.12086728264395236
0.6370106168436142,0.1263485348615497
0.6380106335105585,0.13200037134953674
0.639010650177503,0.13778080777921925
0.6400106668444474,0.14364799313139165
0.6410106835113919,0.14956183677630358
0.6420107001783364,0.15549107562773715
0.6430107168452808,0.16140747197251576
0.6440107335122253,0.16728292335660475
0.6450107501791698,0.17308946063545777
0.6460107668461141,0.17879924797401708
0.6470107835130586,0.18438458284671308
0.648010800180003,0.18981789603746393
0.6490108168469475,0.1950717516396767
0.650010833513892,0.2001188470562467
0.6510108501808364,0.2049371444442179
0.6520108668477809,0.2095322846232549
0.6530108835147252,0.21391924482168023
0.6540109001816697,0.21811314205100374
0.6550109168486142,0.2221292266322232
0.6560109335155586,0.2259828821958247
0.6570109501825031,0.22968962568178275
0.6580109668494476,0.23326510733956007
0.659010983516392,0.2367251107281079
0.6600110001833365,0.24008555271586504
0.6610110168502809,0.24335797977499413
0.6620110335172253,0.2465297851297189
0.6630110501841698,0.24958034527189177
0.6640110668511142,0.2524891640250411
0.6650110835180587,0.2552358785221837
0.6660111001850031,0.25780025920582456
0.6670111168519476,0.26016220982795685
0.6680111335188921,0.2623017674500623
0.6690111501858365,0.26419910244311073
0.670011166852781,0.26583451848756007
0.6710111835197254,0.26719444948801385
0.6720112001866698,0.268297949843153
0.6730112168536143,0.26917515723153596
0.6740112335205587,0.26985635101002503
0.6750112501875032,0.2703719438449706
0.6760112668544477,0.2707524817122119
0.6770112835213921,0.27102864389707554
0.6780113001883366,0.2712312429943771
0.6790113168552809,0.27139122490842005
0.6800113335222254,0.27153966885299635
0.6810113501891699,0.2716988753115597
0.6820113668561143,0.27184277708694965
0.6830113835230588,0.2719290208900873
0.6840114001900032,0.2719153736739427
0.6850114168569477,0.27175973570097484
0.6860114335238922,0.27142014054313074
0.6870114501908365,0.27085475508184553
0.688011466857781,0.270021879508043
0.6890114835247255,0.2688799473221347
0.6900115001916699,0.2673875253340212
0.6910115168586144,0.2655077792875737
0.6920115335255588,0.2632451373082955
0.6930115501925033,0.26062203507154125
0.6940115668594478,0.25766070547262643
0.6950115835263921,0.25438315709310516
0.6960116001933366,0.2508111742007697
0.697011616860281,0.24696631674965175
0.6980116335272255,0.2428699203800205
0.69901165019417,0.2385430964183842
0.7000116668611144,0.23400673187748974
0.7010116835280589,0.2292834752756895
0.7020117001950034,0.22440664992714487
0.7030117168619477,0.21941303049955221
0.7040117335288922,0.21433915103708315
0.7050117501958366,0.20922132122094467
0.7060117668627811,0.204095626418584
0.7070117835297256,0.19899792768368624
0.70801180019667,0.193963861756175
0.7090118168636145,0.18902884106221257
0.7100118335305589,0.1842280537141995
0.7110118501975033,0.1795888574747155
0.7120118668644478,0.1750964189812162
0.7130118835313922,0.17072128517093701
0.7140119001983367,0.1664337657799141
0.7150119168652811,0.1622039462304219
0.7160119335322256,0.158001687630974
0.7170119501991701,0.15379662677632214
0.7180119668661145,0.14955817614745637
0.719011983533059,0.14525552391160548
0.7200120002000034,0.14085763392223713
0.7210120168669478,0.13633950769802097
0.7220120335338923,0.13171063229162516
0.7230120502008367,0.12699222879285968
0.7240120668677812,0.12220530509846281
0.7250120835347257,0.11737064479141225
0.7260121002016701,0.11250880714092412
0.7270121168686146,0.10764012710245269
0.7280121335355589,0.10278471531769126
0.7290121502025034,0.09796245811457108
0.7300121668694479,0.09319301750726264
0.7310121835363923,0.08849572169765181
0.7320122002033368,0.08388906483486513
0.7330122168702813,0.0793911057639043
0.7340122335372257,0.07501967881230984
0.7350122502041702,0.07079239399385993
0.7360122668711145,0.06672663700857141
0.737012283538059,0.06283956924270016
0.7380123002050035,0.05914812776874005
0.7390123168719479,0.05566902534542377
0.7400123335388924,0.05241875041772236
0.7410123502058368,0.04940817997953001
0.7420123668727813,0.04661783044214087
0.7430123835397258,0.04401752003700824
0.7440124002066701,0.04157683218963784
0.7450124168736146,0.03926512601177398
0.7460124335405591,0.03705153630139931
0.7470124502075035,0.03490497354273504
0.748012466874448,0.032794123906241264
0.7490124835413924,0.030687449248616362
0.7500125002083369,0.02855318711279689
0.7510125168752814,0.026365466083438448
0.7520125335422257,0.024132558093854842
0.7530125502091702,0.021874507558727593
0.7540125668761146,0.019611147041869482
0.7550125835430591,0.017362084793332243
0.7560126002100036,0.015146704749405876
0.757012616876948,0.013040370701682864
0.7580126335438925,0.011181545536651957
0.7590126502108369,0.00955579400101621
0.7600126668777814,0.008143332402005213
0.7610126835447258,0.006924441271915922
0.7620127002116702,0.005871258558231895
0.7630127168786147,0.004954256290149447
0.7640127335455592,0.0041457334538596725
0.7650127502125036,0.003419819757604001
0.7660127668794481,0.0027524756316743134
0.7670127835463925,0.002121492228412994
0.768012800213337,0.0015064914222126177
0.7690128168802814,0.0008889258095162722
0.7700128335472258,0.0002520787088171623
0.7710128502141703,-0.0004237916555037786
0.7720128668811147,-0.0011841378423261975
0.7730128835480592,-0.002082279970373444
0.7740129002150037,-0.003169718254647841
0.7750129168819481,-0.004496122188101126
0.7760129335488926,-0.006109330541634829
0.777012950215837,-0.008055351364100424
0.7780129668827814,-0.010378361982298244
0.7790129835497259,-0.013120709000978925
0.7800130002166703,-0.016322908302842262
0.7810130168836148,-0.020014667446535645
0.7820130335505593,-0.02417270850101235
0.7830130502175037,-0.028753830778707648
0.7840130668844482,-0.03371298197311126
0.7850130835513925,-0.039003279055662456
0.786013100218337,-0.044576008275750166
0.7870131168852815,-0.05038062516071295
0.7880131335522259,-0.05636475451583899
0.7890131502191704,-0.062474190424365895
0.7900131668861148,-0.06865289624748123
0.7910131835530593,-0.07485339267888354
0.7920132002200038,-0.08108583470248668
0.7930132168869481,-0.08737966958852926
0.7940132335538926,-0.09376253913562424
0.7950132502208371,-0.10026025442033377
0.7960132668877815,-0.10689679579716994
0.797013283554726,-0.11369431289859468
0.7980133002216704,-0.12067312463501871
0.7990133168886149,-0.12785171919480315
0.8000133335555594,-0.1352467540442585
0.8010133502225038,-0.14285927027603734
0.8020133668894482,-0.1506091972485874
0.8030133835563926,-0.1583863252960948
0.8040134002233371,-0.16614384982794328
0.8050134168902816,-0.17369818244217056
0.806013433557226,-0.18070119084556516
0.8070134502241705,-0.18682114160107322
0.808013466891115,-0.19174320569882108
0.8090134835580594,-0.1951694585561148
0.8100135002250038,-0.19681888001744108
0.8110135168919482,-0.19644318831980834
0.8120135335588927,-0.19390248560252432
0.8130135502258372,-0.18910655777697868
0.8140135668927816,-0.18198213709393807
0.8150135835597261,-0.17247286023134945
0.8160136002266705,-0.16053926829434023
0.817013616893615,-0.1461588068152174
0.8180136335605594,-0.12932582575346838
0.8190136502275038,-0.11005157949576051
0.8200136668944483,-0.08836422685594161
0.8210136835613928,-0.06429959919503608
0.8220137002283372,-0.037856849018450864
0.8230137168952817,-0.009032749339896208
0.8240137335622261,0.02215904788295888
0.8250137502291706,0.05568798626526582
0.826013766896115,0.09150660499499523
0.8270137835630594,0.12955053883293838
0.8280138002300039,0.16973851811270568
0.8290138168969483,0.21197236874072772
0.8300138335638928,0.2561370121962554
0.8310138502308373,0.3021041206248689
0.8320138668977817,0.3497497747214656
0.8330138835647262,0.39894085443407884
0.8340139002316705,0.4495273458004415
0.835013916898615,0.5013423304310883
0.8360139335655595,0.55420198550938
0.8370139502325039,0.6079055837914978
0.8380139668994484,0.6622680587015509
0.8390139835663929,0.7168939374068463
0.8400140002333373,0.7710612010953342
0.8410140169002818,0.8240747950813705
0.8420140335672262,0.8752052494385798
0.8430140502341706,0.9237468942800069
0.8440140669011151,0.969050991605723
0.8450140835680595,1.010525782075231
0.846014100235004,1.0476364850074606
0.8470141169019484,1.079905298380774
0.8480141335688929,1.1069113988329613
0.8490141502358374,1.1282909416612434
0.8500141669027818,1.1437370608222717
0.8510141835697262,1.1530206370364946
0.8520142002366707,1.1560917544442
0.8530142169036151,1.153002040038815
0.8540142335705596,1.1438601643187223
0.855014250237504,1.1288317764417337
0.8560142669044485,1.1081395042250923
0.857014283571393,1.0820629541454703
0.8580143002383374,1.0509387113389679
0.8590143169052818,1.0151603396011186
0.8600143335722262,0.9751783813868831
0.8610143502391707,0.9314825282574264
0.8620143669061152,0.8845140328379599
0.8630143835730596,0.8346413833453609
0.8640144002400041,0.782253139514098
0.8650144169069485,0.7278607101346157
0.866014433573893,0.6719456668828476
0.8670144502408375,0.6149587759909727
0.8680144669077818,0.5573199982474156
0.8690144835747263,0.49941848899684604
0.8700145002416708,0.44161259814018
0.8710145169086152,0.38424223763956983
0.8720145335755597,0.3276899766254077
0.8730145502425041,0.27233459727521847
0.8740145669094486,0.21852411815920253
0.8750145835763931,0.16657575240380684
0.8760146002433374,0.11677590769172386
0.8770146169102819,0.06938018626189206
0.8780146335772263,0.02461338490949455
0.8790146502441708,-0.01733050501403841
0.8800146669111153,-0.056288297601031614
0.8810146835780597,-0.09213700734840456
0.8820147002450042,-0.12484051924600648
0.8830147169119487,-0.15441423319996708
0.884014733578893,-0.18090438762054545
0.8850147502458375,-0.20438802636175532
0.8860147669127819,-0.22497299872136547
0.8870147835797264,-0.24279292736608601
0.8880148002466709,-0.2576010854485685
0.8890148169136153,-0.2693871365253292
0.8900148335805598,-0.2784290690607541
0.8910148502475042,-0.2849876661510054
0.8920148669144486,-0.2892599450716987
0.8930148835813931,-0.29141430738106555
0.8940149002483375,-0.2916112359980482
0.895014916915282,-0.290003329309304
0.8960149335822265,-0.28673530116920654
0.8970149502491709,-0.28194398089984474
0.8980149669161154,-0.27575831329102307
0.8990149835830598,-0.26829935860026183
0.9000150002500042,-0.2596802925527968
0.9010150169169487,-0.2500170101851505
0.9020150335838931,-0.23948139158414766
0.9030150502508376,-0.228261240915886
0.904015066917782,-0.21653652908304316
0.9050150835847265,-0.2044793429039772
0.906015100251671,-0.19225388466476284
0.9070151169186154,-0.18001647211918945
0.9080151335855599,-0.16791553848876273
0.9090151502525042,-0.15609163246270347
0.9100151669194487,-0.14467741819794838
0.9110151835863932,-0.1337859325815604
0.9120152002533376,-0.12345126985953248
0.9130152169202821,-0.11367304906324889
0.9140152335872266,-0.10444295827964911
0.915015250254171,-0.09574480106338837
0.9160152669211155,-0.08755449643683717
0.9170152835880598,-0.07984007889008246
0.9180153002550043,-0.07256169838092576
0.9190153169219488,-0.06567162033488512
0.9200153335888932,-0.05911422564519357
0.9210153502558377,-0.05283910205452734
0.9220153669227821,-0.046867540891713126
0.9230153835897266,-0.041242860667271786
0.9240154002566711,-0.03600054910627321
0.9250154169236154,-0.031162312602995797
0.9260154335905599,-0.02667966321992713
0.9270154502575044,-0.022573165649948344
0.9280154669244488,-0.018889883526085872
0.9290154835913933,-0.01567738979179459
0.9300155002583377,-0.012983766700957942
0.9310155169252822,-0.010843314595713893
0.9320155335922267,-0.009203555639655447
0.933015550259171,-0.00797957391333932
0.9340155669261155,-0.007086901883282237
0.9350155835930599,-0.006441581326430239
0.9360156002600044,-0.005960163330157378
0.9370156169269489,-0.005559708292266344
0.9380156335938933,-0.00515778592098823
0.9390156502608378,-0.004672475234982673
0.9400156669277822,-0.004022364563337825
0.9410156835947266,-0.0031393380271765824
0.9420157002616711,-0.002034250267394882
0.9430157169286155,-0.0007482091984954004
0.94401573359556,0.0006771113721438949
0.9450157502625045,0.0021995283267169114
0.9460157669294489,0.0037763492369888418
0.9470157835963934,0.0053643723642964715
0.9480158002633378,0.006919886659548373
0.9490158169302823,0.008398671763224059
0.9500158335972267,0.009755998005375
0.9510158502641711,0.010954416004899612
0.9520158669311156,0.012003989244008473
0.95301588359806,0.012932555388757011
0.9540159002650045,0.013767478564084171
0.955015916931949,0.014535613584500241
0.9560159335988934,0.015263305954086917
0.9570159502658379,0.015976391866497578
0.9580159669327823,0.016700198204957155
0.9590159835997267,0.01745954254226178
0.9600160002666712,0.01827873314077925
0.9610160169336156,0.019180411829933235
0.9620160336005601,0.02017954424652635
0.9630160502675046,0.02128784627898847
0.964016066934449,0.0225165189934478
0.9650160836013935,0.023876254145604084
0.9660161002683378,0.025377234180728354
0.9670161169352823,0.027029132233663395
0.9680161336022268,0.028841112128823572
0.9690161502691712,0.030821828380194385
0.9700161669361157,0.03297942619133302
0.9710161836030601,0.03531721178371088
0.9720162002700046,0.03781103995941101
0.9730162169369491,0.04042590973568469
0.9740162336038934,0.04312628943176249
0.9750162502708379,0.04587613805644687
0.9760162669377824,0.04863890530811165
0.9770162836047268,0.05137753157470209
0.9780163002716713,0.05405758232749379
0.9790163169386157,0.056671817105199584
0.9800163336055602,0.059196619312136205
0.9810163502725047,0.061608108606423725
0.982016366939449,0.06391942475182452
0.9830163836063935,0.06615794699115117
0.9840164002733379,0.06835102218744762
0.9850164169402824,0.07052593444810562
0.9860164336072269,0.0727099051248647
0.9870164502741713,0.07493009281381234
0.9880164669411158,0.07721359335538416
0.9890164836080603,0.0795874398343632
0.9900165002750047,0.08207860257988084
0.9910165169419491,0.0847094676968946
0.9920165336088935,0.08747395894573973
0.993016550275838,0.09035493685824103
0.9940165669427825,0.09333517521340497
0.9950165836097269,0.09639738503458567
0.9960166002766714,0.0995242145894856
0.9970166169436158,0.10269824939015476
0.9980166336105603,0.10590201219299125
0.9990166502775047,0.10911796299874081
1.0000166669444492,0.11232849905249746
1.0010166836113936,0.11551907276336928
1.002016700278338,0.11869474949559104
1.0030167169452826,0.12186819266607288
1.004016733612227,0.12505203043435537
1.0050167502791714,0.12825883291281331
1.0060167669461157,0.1315011099307232
1.0070167836130604,0.13479130860128663
1.0080168002800047,0.1381418132820493
1.0090168169469491,0.14156494557490842
1.0100168336138937,0.14507296432610567
1.011016850280838,0.14867723403772953
1.0120168669477825,0.15238378412045753
1.013016883614727,0.15619652137767884
1.0140169002816715,0.1601192851207451
1.0150169169486158,0.16415585190535914
1.0160169336155604,0.1683099355315677
1.0170169502825048,0.17258518704376982
1.0180169669494492,0.17698519473070812
1.0190169836163936,0.18151348412547694
1.0200170002833382,0.18617351800551485
1.0210170169502826,0.1909648347603172
1.022017033617227,0.1958623120769765
1.0230170502841716,0.20083111334535694
1.024017066951116,0.20583631642503356
1.0250170836180603,0.21084293641993265
1.026017100285005,0.2158159256783288
1.0270171169519493,0.2207201737928404
1.0280171336188937,0.22552050760043887
1.0290171502858383,0.2301816911824388
1.0300171669527827,0.2346684258645072
1.031017183619727,0.23895422094332314
1.0320172002866714,0.24306930433865748
1.033017216953616,0.247073768445245
1.0340172336205604,0.25102517928420126
1.0350172502875048,0.2549739642743665
1.0360172669544494,0.25897060948581235
1.0370172836213938,0.26306565963983314
1.0380173002883382,0.2673097181089542
1.0390173169552828,0.2717534469169242
1.0400173336222271,0.2764475667387228
1.0410173502891715,0.28143183845258135
1.0420173669561161,0.2866752348537445
1.0430173836230605,0.29211874959272854
1.044017400290005,0.2977033653528571
1.0450174169569493,0.3033701234686766
1.0460174336238939,0.30906012392596466
1.0470174502908383,0.3147145253617218
1.0480174669577826,0.32027454506417974
1.0490174836247272,0.32568145897279277
1.0500175002916716,0.3308766016782471
1.051017516958616,0.33581078411253884
1.0520175336255606,0.3404957148429246
1.053017550292505,0.3449673416976149
1.0540175669594494,0.3492617327210832
1.055017583626394,0.3534150146090258
1.0560176002933384,0.3574633727083703
1.0570176169602827,0.3614430510172672
1.0580176336272271,0.36539035218509774
1.0590176502941717,0.3693416375124668
1.060017666961116,0.3733333269512099
1.0610176836280605,0.3773958306057932
1.062017700295005,0.3815202297159591
1.0630177169619495,0.38568194231291814
1.0640177336288938,0.3898564040452039
1.0650177502958385,0.39401910921257444
1.0660177669627828,0.3981456107660174
1.0670177836297272,0.4022115203077445
1.0680178002966716,0.4061925080911978
1.0690178169636162,0.41006430302104296
1.0700178336305606,0.41380269265317643
1.071017850297505,0.41738609431114587
1.0720178669644496,0.4208097503960791
1.073017883631394,0.42407568312652605
1.0740179002983383,0.42718599135035207
1.075017916965283,0.4301428325666466
1.0760179336322273,0.4329484229257286
1.0770179502991717,0.4356050372291419
1.0780179669661163,0.4381150089296602
1.0790179836330607,0.44048073013128086
1.080018000300005,0.442704651589231
1.0810180169669494,0.4447892707542014
1.082018033633894,0.4467370653961304
1.0830180503008384,0.448550540400603
1.0840180669677828,0.45023225921800536
1.0850180836347274,0.45178484394994983
1.0860181003016718,0.4532109753492763
1.0870181169686162,0.4545133928200514
1.0880181336355608,0.45569489441756916
1.0890181503025052,0.45675833684834993
1.0900181669694495,0.4577066354701421
1.0910181836363941,0.45854269428612604
1.0920182003033385,0.45926901512084817
1.093018216970283,0.4598879721304286
1.0940182336372273,0.4604019975991584
1.0950182503041719,0.4608135824625544
1.0960182669711163,0.4611252763073612
1.0970182836380606,0.4613396873715505
1.0980183003050052,0.46145948254432095
1.0990183169719496,0.4614873873660976
1.100018333638894,0.46142618602853364
1.1010183503058386,0.4612772512114866
1.102018366972783,0.4610322907940298
1.1030183836397274,0.46067911175953974
1.104018400306672,0.46020554160041693
1.1050184169736164,0.45959946262046064
1.1060184336405607,0.4588488157746963
1.1070184503075051,0.45793866042147924
1.1080184669744497,0.456838393333803
1.109018483641394,0.4555365649283233
1.1100185003083385,0.45402576960031366
1.111018516975283,0.45230100109654703
1.1120185336422275,0.4503734462517526
1.1130185503091719,0.4482608689959906
1.1140185669761165,0.44598100861012
1.1150185836430608,0.44355156023646736
1.1160186003100052,0.4409901748788227
1.1170186169769498,0.43831445940244373
1.1180186336438942,0.4355419765340507
1.1190186503108386,0.43269024486183255
1.120018666977783,0.4297767388354409
1.1210186836447276,0.42681540972646337
1.122018700311672,0.42379693673536556
1.1230187169786163,0.4207024425195237
1.124018733645561,0.41751297693763983
1.1250187503125053,0.4142095457098847
1.1260187669794497,0.4107731104178916
1.1270187836463943,0.4071845885047627
1.1280188003133387,0.4034248532750614
1.129018816980283,0.39947473389482085
1.1300188336472277,0.3953150153915362
1.131018850314172,0.3909325149890426
1.1320188669811164,0.38635476674722635
1.1330188836480608,0.38162602451476235
1.1340189003150054,0.37679054969022246
1.1350189169819498,0.37189255953364797
1.1360189336488942,0.3669762271665417
1.1370189503158388,0.362085681571876
1.1380189669827832,0.3572650075940844
1.1390189836497275,0.35255824593907076
1.1400190003166721,0.3480093931741994
1.1410190169836165,0.3436540065374493
1.142019033650561,0.33947101601156426
1.1430190503175053,0.3354159369243422
1.1440190669844499,0.3314441667396175
1.1450190836513943,0.3275110587826945
1.1460191003183386,0.32357192224033926
1.1470191169852832,0.3195820221607868
1.1480191336522276,0.3154965794537343
1.149019150319172,0.31127077089034755
1.1500191669861166,0.3068597291032545
1.151019183653061,0.30222636543152426
1.1520192003200054,0.2973865227180736
1.15301921698695,0.2923779735443145
1.1540192336538944,0.2872385172603409
1.1550192503208387,0.2820059090777119
1.1560192669877831,0.2767178600694558
1.1570192836547277,0.27141203717006174
1.158019300321672,0.2661260631754886
1.1590193169886165,0.2608975167431562
1.160019333655561,0.2557639323919549
1.1610193503225055,0.25075824353734305
1.1620193669894499,0.24588233356581904
1.1630193836563945,0.24112512589110388
1.1640194003233388,0.23647545716517357
1.1650194169902832,0.2319221199014653
1.1660194336572278,0.22745386247488558
1.1670194503241722,0.223059389121803
1.1680194669911166,0.21872735994005518
1.169019483658061,0.21444639088894124
1.1700195003250056,0.21020505378922993
1.17101951699195,0.2059926887656307
1.1720195336588943,0.20180414598474977
1.173019550325839,0.1976365549861162
1.1740195669927833,0.19348700901071625
1.1750195836597277,0.1893525571609977
1.1760196003266723,0.18523020440087762
1.1770196169936167,0.1811169115557351
1.178019633660561,0.17700959531241797
1.1790196503275057,0.17290512821923623
1.18001966699445,0.16880033868596864
1.1810196836613944,0.16469325836791507
1.1820197003283388,0.16059044295475156
1.1830197169952834,0.15650200363226496
1.1840197336622278,0.1524380198637873
1.1850197503291722,0.148408526974112
1.1860197669961168,0.14442351614950213
1.1870197836630612,0.140492934437682
1.1880198003300055,0.13662668474784553
1.1890198169969501,0.1328346258506484
1.1900198336638945,0.12912657237821523
1.191019850330839,0.1255119090842296
1.1920198669977835,0.12199731435659775
1.1930198836647279,0.11858829923852043
1.1940199003316723,0.11529032667507205
1.1950199169986166,0.11210881547278935
1.1960199336655613,0.10904914029967692
1.1970199503325056,0.10611663168520215
1.19801996699945,0.103316576020301
1.1990199836663946,0.1006542155573719
1.200020000333339,0.09813474841028168
1.2010200170002834,0.09575992552781198
1.202020033667228,0.09350785544351942
1.2030200503341724,0.09134661464807382
1.2040200670011167,0.0892442400293618
1.2050200836680613,0.08716873287854834
1.2060201003350057,0.08508804603169692
1.20702011700195,0.082970087128631
1.2080201336688945,0.08078271967064223
1.209020150335839,0.07849376302048515
1.2100201670027835,0.07607099240238227
1.2110201836697279,0.07348852026463444
1.2120202003366725,0.07076541725241017
1.2130202170036168,0.06794005014248702
1.2140202336705612,0.06504893354250926
1.2150202503375058,0.06212849453803304
1.2160202670044502,0.059215171207460636
1.2170202836713946,0.056345412622037495
1.218020300338339,0.05355567884585558
1.2190203170052836,0.05088244093585018
1.220020333672228,0.048362180941802696
1.2210203503391723,0.04602665487611599
1.222020367006117,0.043874466608805625
1.2230203836730613,0.04189006017747807
1.2240204003400057,0.040057837345484404
1.2250204170069503,0.03836221086901887
1.2260204336738947,0.036787604497121956
1.227020450340839,0.03531845297167756
1.2280204670077837,0.033939202027415905
1.229020483674728,0.032634308391910505
1.2300205003416724,0.03138823978558104
1.2310205170086168,0.030186279996523055
1.2320205336755614,0.02901938692601542
1.2330205503425058,0.02788095962709689
1.2340205670094502,0.026764417474322764
1.2350205836763948,0.025663190835092126
1.2360206003433392,0.024570721069649994
1.2370206170102835,0.023480460531085233
1.2380206336772281,0.022385872565332386
1.2390206503441725,0.02128043151116972
1.240020667011117,0.0201576227002215
1.2410206836780615,0.019012762407788205
1.242020700345006,0.017854041167998675
1.2430207170119503,0.016695203806205088
1.2440207336788947,0.015550027867220281
1.2450207503458393,0.014432301888700856
1.2460207670127836,0.013355825401149123
1.247020783679728,0.012334408927911508
1.2480208003466726,0.011381873985179774
1.249020817013617,0.010512053081990021
1.2500208336805614,0.00973878972022356
1.251020850347506,0.00907380351135631
1.2520208670144504,0.008513663644605773
1.2530208836813947,0.008048388945057623
1.2540209003483394,0.007667982977873111
1.2550209170152837,0.007362460301058192
1.2560209336822281,0.007121846465464152
1.2570209503491725,0.006936178014786367
1.258020967016117,0.006795502485565446
1.2590209836830615,0.00668987840718658
1.2600210003500059,0.0066093753018799375
1.2610210170169505,0.0065448843525059515
1.2620210336838948,0.0064930924837079095
1.2630210503508392,0.006453211664462693
1.2640210670177838,0.006424475123355691
1.2650210836847282,0.006406127081816704
1.2660211003516726,0.00639742275412036
1.2670211170186172,0.006397628347386347
1.2680211336855616,0.006406021061578908
1.269021150352506,0.006421889089507169
1.2700211670194503,0.006444531616825063
1.271021183686395,0.006473630354822591
1.2720212003533393,0.006511541900385268
1.2730212170202837,0.006561796471621783
1.2740212336872283,0.006627940124552641
1.2750212503541727,0.00671352990804331
1.276021267021117,0.006822133863803873
1.2770212836880617,0.0069573310263895734
1.278021300355006,0.007122711423199949
1.2790213170219504,0.0073218760744798205
1.2800213336888948,0.007558436993318552
1.2810213503558394,0.007834175065707407
1.2820213670227838,0.00813761074756498
1.2830213836897282,0.008451458809819604
1.2840214003566728,0.008758420284412417
1.2850214170236172,0.009041207196130056
1.2860214336905615,0.009282542562603302
1.2870214503575061,0.00946516039430796
1.2880214670244505,0.009571805694564754
1.289021483691395,0.009585234459539117
1.2900215003583395,0.009488213678241248
1.291021517025284,0.009267100849471674
1.2920215336922283,0.008934176769310591
1.2930215503591727,0.008513138237663665
1.2940215670261173,0.008027742515183704
1.2950215836930616,0.0075017578553681534
1.296021600360006,0.0069589635045589895
1.2970216170269506,0.006423149701943469
1.298021633693895,0.005918117679552878
1.2990216503608394,0.005467679662264154
1.300021667027784,0.005095658867798868
1.3010216836947284,0.004822505443169723
1.3020217003616728,0.004644065280877645
1.3030217170286174,0.0045453112147925585
1.3040217336955617,0.0045111528499794645
1.3050217503625061,0.004526500676587732
1.3060217670294505,0.004576276155539901
1.307021783696395,0.004645411740603298
1.3080218003633395,0.004718850878389986
1.3090218170302839,0.004781548008356826
1.3100218336972285,0.0048184685628055845
1.3110218503641728,0.0048170859251923815
1.3120218670311172,0.004783134482855359
1.3130218836980618,0.004730460147992447
1.3140219003650062,0.004672956369268207
1.3150219170319506,0.004624527588192635
1.3160219336988952,0.004599089239119887
1.3170219503658396,0.004610567749249168
1.318021967032784,0.004672900538624528
1.3190219836997283,0.004800036020134663
1.320022000366673,0.005005933599513312
1.3210220170336173,0.005301861854357103
1.3220220337005617,0.00567925784353894
1.3230220503675063,0.006120725070610724
1.3240220670344507,0.006608837350200779
1.325022083701395,0.007126209310600135
1.3260221003683397,0.0076555186257818535
1.327022117035284,0.008179183424289162
1.3280221337022284,0.008679592733756958
1.329022150369173,0.009139140569039262
1.3300221670361174,0.009540225932210208
1.3310221837030618,0.009867935143755995
1.3320222003700062,0.010127153932619308
1.3330222170369508,0.010331633331496701
1.3340222337038952,0.010495170906224632
1.3350222503708395,0.010631569209859248
1.3360222670377842,0.010754635782676445
1.3370222837047285,0.010878183152171407
1.338022300371673,0.011016028833059473
1.3390223170386175,0.011181995327275051
1.340022333705562,0.011389910123972858
1.3410223503725063,0.011651602505733747
1.3420223670394509,0.011964052659848035
1.3430223837063953,0.012317568804944317
1.3440224003733396,0.012702432235710123
1.345022417040284,0.013108929234052503
1.3460224337072286,0.013527351069098435
1.347022450374173,0.013947993997194189
1.3480224670411174,0.014361159261906014
1.349022483708062,0.014757153094019563
1.3500225003750064,0.015126286711540362
1.3510225170419508,0.01545926630513337
1.3520225337088954,0.015749708853611377
1.3530225503758397,0.015992547990049722
1.3540225670427841,0.016182728723314162
1.3550225837097285,0.016315201049490118
1.356022600376673,0.01638491995188282
1.3570226170436175,0.01638684540101662
1.3580226337105619,0.016315942354636057
1.3590226503775065,0.016167180757705218
1.3600226670444509,0.015935535542407474
1.3610226837113952,0.015619025685134543
1.3620227003783398,0.015238428903946818
1.3630227170452842,0.014824842084470161
1.3640227337122286,0.01440941828693888
1.3650227503791732,0.014023315558806015
1.3660227670461176,0.013697696934744779
1.367022783713062,0.013463730436648275
1.3680228003800063,0.013352589073628459
1.369022817046951,0.01339545084201763
1.3700228337138953,0.013623498725367611
1.3710228503808397,0.014061437103859768
1.3720228670477843,0.014685196811087476
1.3730228837147287,0.015448509569817902
1.374022900381673,0.016304999825473003
1.3750229170486177,0.017208297010693815
1.376022933715562,0.018112035545341767
1.3770229503825064,0.018969854836497147
1.378022967049451,0.019735399278460155
1.3790229837163954,0.020362318252750942
1.3800230003833398,0.020804266128109015
1.3810230170502842,0.02102249276891463
1.3820230337172288,0.021035636278872658
1.3830230503841732,0.020888570524409428
1.3840230670511176,0.020626309453214035
1.3850230837180622,0.02029387200019537
1.3860231003850065,0.01993628208748232
1.387023117051951,0.019598568624422552
1.3880231337188955,0.01932576550758422
1.38902315038584,0.019162911620754505
1.3900231670527843,0.019155050834940637
1.3910231837197289,0.01934116912893171
1.3920232003866733,0.019714200370660722
1.3930232170536176,0.02024594156639947
1.394023233720562,0.020908083812911916
1.3950232503875066,0.021672323194182056
1.396023267054451,0.022510360781413104
1.3970232837213954,0.02339390263302787
1.39802330038834,0.02429465979466951
1.3990233170552844,0.025184348299199594
1.4000233337222288,0.026034689166700667
1.4010233503891734,0.026819072407688636
1.4020233670561177,0.027523595174110953
1.4030233837230621,0.02814021558014544
1.4040234003900067,0.028660936213180152
1.405023417056951,0.02907776971366262
1.4060234337238955,0.029382735942313297
1.4070234503908399,0.02956786302693789
1.4080234670577845,0.02962518435678671
1.4090234837247289,0.029546738308329684
1.4100235003916732,0.029324568245256543
1.4110235170586178,0.02895468273716605
1.4120235337255622,0.028463472714555196
1.4130235503925066,0.02789139567108764
1.4140235670594512,0.027278122857687916
1.4150235837263956,0.026660700255851825
1.41602360039334,0.02608060394227113
1.4170236170602846,0.025579884002723898
1.418023633727229,0.02520058536412646
1.4190236503941733,0.024984747794532476
1.4200236670611177,0.024974405903133608
1.4210236837280623,0.02520510116364403
1.4220237003950067,0.02566236062995304
1.423023717061951,0.026308460039556582
1.4240237337288957,0.027105541264778585
1.42502375039584,0.028015741019081677
1.4260237670627844,0.029001190857065366
1.427023783729729,0.030024017174467753
1.4280238003966734,0.03104634120816367
1.4290238170636178,0.032030279036166585
1.4300238337305622,0.03293794157762731
1.4310238503975068,0.03373593545266767
1.4320238670644512,0.03442572386145641
1.4330238837313956,0.035025037769769916
1.4340239003983402,0.035551694694224076
1.4350239170652845,0.03602350699257307
1.436023933732229,0.036458281863708156
1.4370239503991735,0.036873821347659166
1.438023967066118,0.037287922325592526
1.4390239837330623,0.037718376519813815
1.4400240004000069,0.03818297049376523
1.4410240170669513,0.03870017599687735
1.4420240337338956,0.03929383283639761
1.44302405040084,0.03999029429782851
1.4440240670677846,0.040815922954094364
1.445024083734729,0.04179707621925796
1.4460241004016734,0.0429601063485187
1.447024117068618,0.04433136043821502
1.4480241337355624,0.04593718042582187
1.4490241504025068,0.04780390308995329
1.4500241670694514,0.049957860050359425
1.4510241837363957,0.05241748000215926
1.4520242004033401,0.05513941478206124
1.4530242170702847,0.05805123508924841
1.454024233737229,0.06108033675439488
1.4550242504041735,0.0641541104493131
1.4560242670711179,0.06719994168695138
1.4570242837380625,0.07014521082139885
1.4580243004050069,0.07291729304787938
1.4590243170719512,0.07544355840275671
1.4600243337388958,0.07765137176353072
1.4610243504058402,0.07948111132122672
1.4620243670727846,0.08097547109288467
1.4630243837397292,0.08222550390369099
1.4640244004066736,0.08332254464172623
1.465024417073618,0.08435792303620977
1.4660244337405626,0.08542296365749749
1.467024450407507,0.08660898591708566
1.4680244670744513,0.08800730406760417
1.4690244837413957,0.08970922720282527
1.4700245004083403,0.09180605925765459
1.4710245170752847,0.09437712316662016
1.472024533742229,0.09740714948175859
1.4730245504091737,0.1008359682870244
1.474024567076118,0.10460313326230464
1.4750245837430624,0.10864819292862679
1.476024600410007,0.11291069064815372
1.4770246170769514,0.11734107241152776
1.4780246337438958,0.12188670747686112
1.4790246504108404,0.1264782016161388
1.4800246670777848,0.13104616667026822
1.4810246837447292,0.13552840871002744
1.4820247004116736,0.1399194980203416
1.4830247170786182,0.14424108556593726
1.4840247337455625,0.14851503682607758
1.485024750412507,0.15276326566268197
1.4860247670794515,0.15700773432031853
1.487024783746396,0.16127045342621243
1.4880248004133403,0.1655734819902378
1.489024817080285,0.16993892740492522
1.4900248337472293,0.1743889454454538
1.4910248504141737,0.17894283904074926
1.4920248670811183,0.18359681972801598
1.4930248837480626,0.18833607234874108
1.494024900415007,0.1931457609009584
1.4950249170819514,0.19801109776535897
1.496024933748896,0.20291734370528183
1.4970249504158404,0.2078498078667238
1.4980249670827848,0.21279384777832963
1.4990249837497294,0.2177348693514012
1.5000250004166737,0.22265832687988935
1.5010250170836181,0.2275502708089775
1.5020250337505627,0.23240119035760787
1.5030250504175071,0.23720373327624764
1.5040250670844515,0.24195061055988612
1.5050250837513959,0.24663458295844806
1.5060251004183405,0.2512484596584892
1.5070251170852849,0.2557850982292216
1.5080251337522292,0.2602374046225071
1.5090251504191738,0.2645983331728634
1.5100251670861182,0.2688608865974575
1.5110251837530626,0.2730177170013828
1.5120252004200072,0.2770583111772626
1.5130252170869516,0.28097065331717463
1.514025233753896,0.284742765971141
1.5150252504208406,0.28836272007184033
1.516025267087785,0.2918186349346005
1.5170252837547293,0.29509867825740516
1.5180253004216737,0.29819106612088825
1.5190253170886183,0.30108406298833906
1.5200253337555627,0.30376598170569674
1.521025350422507,0.3062272086933446
1.5220253670894517,0.30847457096606257
1.523025383756396,0.3105228880391329
1.5240254004233404,0.31238708001404686
1.525025417090285,0.31408211537495023
1.5260254337572294,0.3156230109886399
1.5270254504241738,0.317024832104567
1.5280254670911184,0.3183026923548345
1.5290254837580628,0.319471753754199
1.5300255004250072,0.3205472267000686
1.5310255170919516,0.3215408761167175
1.5320255337588962,0.32243609605259294
1.5330255504258405,0.3232024988342747
1.534025567092785,0.3238096527826963
1.5350255837597295,0.324227174601444
1.536025600426674,0.32442472937675726
1.5370256170936183,0.32437203057752734
1.538025633760563,0.32403884005529926
1.5390256504275073,0.32339385210551447
1.5400256670944517,0.32239662782890544
1.5410256837613963,0.3210302358188858
1.5420257004283406,0.3193102194672149
1.543025717095285,0.3172650192874156
1.5440257337622294,0.3149229879429791
1.545025750429174,0.3123123014752795
1.5460257670961184,0.30946095930356904
1.5470257837630628,0.30639678422498273
1.5480258004300074,0.3031474224145336
1.5490258170969518,0.2997403434251184
1.5500258337638961,0.2962028401875114
1.5510258504308407,0.29256053314777225
1.5520258670977851,0.28882657817108304
1.5530258837647295,0.2850079247635744
1.554025900431674,0.2811113041982329
1.5550259170986185,0.27714327112592824
1.5560259337655629,0.2731102035754083
1.5570259504325072,0.26901830295330437
1.5580259670994518,0.2648735940441245
1.5590259837663962,0.2606819250102619
1.5600260004333406,0.25644896739198586
1.5610260171002852,0.2521793840437214
1.5620260337672296,0.24787079227588346
1.563026050434174,0.24351724816774
1.5640260671011186,0.23911260744077206
1.565026083768063,0.23465054919434583
1.5660261004350073,0.23012457590570398
1.567026117101952,0.22552801342997345
1.5680261337688963,0.2208540110001579
1.5690261504358407,0.21609554122714583
1.570026167102785,0.21124540009970216
1.5710261837697297,0.20629856725564447
1.572026200436674,0.2012694269600849
1.5730262171036185,0.19618187544551097
1.574026233770563,0.19105970135997433
1.5750262504375074,0.1859265167294105
1.5760262671044518,0.18080575695763265
1.5770262837713964,0.17572068082633782
1.5780263004383408,0.17069437049509972
1.5790263171052852,0.1657497315013768
1.5800263337722296,0.16090949276050423
1.5810263504391742,0.156194645563549
1.5820263671061185,0.15161298997130032
1.583026383773063,0.1471656832036492
1.5840264004400075,0.14285365904610897
1.585026417106952,0.13867767466207773
1.5860264337738963,0.1346383105928299
1.587026450440841,0.13073597075752474
1.5880264671077853,0.12697088245319788
1.5890264837747297,0.1233430963547699
1.5900265004416743,0.11985248651503758
1.5910265171086186,0.11649711953760979
1.592026533775563,0.11326122110957232
1.5930265504425074,0.11012202311885147
1.594026567109452,0.10705653069538477
1.5950265837763964,0.10404157234699317
1.5960266004433408,0.10105379995937505
1.5970266171102854,0.09806968879611283
1.5980266337772298,0.0950655374986661
1.5990266504441741,0.09201746808637826
1.6000266671111187,0.08890142595647003
1.6010266837780631,0.08569828465042127
1.6020267004450075,0.08243172535198937
1.603026717111952,0.07914678636006751
1.6040267337788965,0.07588847888991741
1.6050267504458409,0.07270162099282966
1.6060267671127852,0.06963085267662313
1.6070267837797299,0.06672063608593352
1.6080268004466742,0.06401525596146095
1.6090268171136186,0.0615571784636663
1.6100268337805632,0.059376917473889824
1.6110268504475076,0.057510529857022534
1.612026867114452,0.055942812404005414
1.6130268837813966,0.05463051652145383
1.614026900448341,0.05352915357849226
1.6150269171152853,0.0525931998337061
1.61602693378223,0.05177609643513787
1.6170269504491743,0.05103024942028992
1.6180269671161187,0.05030702971612323
1.619026983783063,0.049556773139057764
1.6200270004500077,0.048728780394971416
1.621027017116952,0.047775765131965825
1.6220270337838965,0.046687234479888096
1.623027050450841,0.04547076890167633
1.6240270671177854,0.04413306097690675
1.6250270837847298,0.042679768174615995
1.6260271004516744,0.04111551285329775
1.6270271171186188,0.03944388226090649
1.6280271337855632,0.037667428534853824
1.6290271504525078,0.03578766870201147
1.6300271671194522,0.03380508467870875
1.6310271837863966,0.031718063907084905
1.632027200453341,0.02951490436097437
1.6330272171202855,0.02717827632520243
1.63402723378723,0.024710630051999544
1.6350272504541743,0.02212446120271891
1.636027267121119,0.019371087587717106
1.6370272837880633,0.01640632383819237
1.6380273004550077,0.013193117945207725
1.6390273171219523,0.009701551259695266
1.6400273337888966,0.005908838492450636
1.641027350455841,0.0017986261914908655
1.6420273671227856,-0.0026443315992686215
1.64302738378973,-0.007431216575787728
1.6440274004566744,-0.012566101453451292
1.6450274171236188,-0.018045925587772536
1.6460274337905634,-0.02386049497440342
1.6470274504575078,-0.02999248224912381
1.6480274671244521,-0.036417426687852146
1.6490274837913967,-0.043103734206634735
1.6500275004583411,-0.05001267736165708
1.6510275171252855,-0.05709832970627653
1.65202753379223,-0.06430706475968216
1.6530275504591745,-0.07157783286883193
1.6540275671261189,-0.07884244868369496
1.6550275837930633,-0.08602559349436653
1.6560276004600079,-0.09304481523108178
1.6570276171269522,-0.09981052846420302
1.6580276337938966,-0.10622822824232064
1.6590276504608412,-0.1124559773860254
1.6600276671277856,-0.11844937502529117
1.66102768379473,-0.12394618215950651
1.6620277004616746,-0.12869922031640083
1.663027717128619,-0.1324769744365333
1.6640277337955633,-0.1350642241080966
1.665027750462508,-0.13626204877691647
1.6660277671294523,-0.1358878277464563
1.6670277837963967,-0.1337752401778139
1.668027800463341,-0.12977426508972417
1.6690278171302857,-0.12375118135855535
1.67002783379723,-0.11558856771831566
1.6710278504641745,-0.10518412484617654
1.672027867131119,-0.09244158250760552
1.6730278837980634,-0.07727567409842684
1.6740279004650078,-0.059617388866124214
1.6750279171319524,-0.039414015915802104
1.6760279337988968,-0.01662914421021755
1.6770279504658412,0.008757337430255571
1.6780279671327858,0.03674924032758619
1.6790279837997302,0.06733407594613176
1.6800280004666746,0.10048305589258717
1.681028017133619,0.13614937494975732
1.6820280338005635,0.1742548818341909
1.683028050467508,0.21469733465444105
1.6840280671344523,0.257358125963876
1.685028083801397,0.3021023484582654
1.6860281004683413,0.34877879497570513
1.6870281171352857,0.3972199584966946
1.6880281338022303,0.4472420321440566
1.6890281504691746,0.4986449091830209
1.690028167136119,0.5512121830211366
1.6910281838030636,0.6047116927296587
1.692028200470008,0.6589006571355112
1.6930282171369524,0.7135874291935835
1.6940282338038968,0.768165768229414
1.6950282504708414,0.8218662177400646
1.6960282671377858,0.8739748795205772
1.6970282838047301,0.9238334136640707
1.6980283004716747,0.9708390385616456
1.6990283171386191,1.0144445309024757
1.7000283338055635,1.0541582256737216
1.701028350472508,1.089545946931475
1.7020283671394525,1.1202461676056232
1.7030283838063969,1.1459618414195711
1.7040284004733415,1.1664515745012574
1.7050284171402859,1.1815295694019197
1.7060284338072302,1.1910655922917754
1.7070284504741746,1.1949849676390791
1.7080284671411192,1.1932685782101107
1.7090284838080636,1.1859528650691764
1.710028500475008,1.1731298275786195
1.7110285171419526,1.1549413254618603
1.712028533808897,1.1315340860510692
1.7130285504758413,1.103083822013986
1.714028567142786,1.069821570201575
1.7150285838097303,1.0320339257628004
1.7160286004766747,0.9900630421446889
1.7170286171436193,0.9443066310922571
1.7180286338105637,0.8951731746707532
1.719028650477508,0.8430192332266762
1.7200286671444525,0.7883486622261077
1.721028683811397,0.7316577612808666
1.7220287004783414,0.6734911330118929
1.7230287171452858,0.6144045773812767
1.7240287338122304,0.5549242217721015
1.7250287504791748,0.49554615239388117
1.7260287671461192,0.43673641428266174
1.7270287838130638,0.3789310113009207
1.7280288004800082,0.3225359061376678
1.7290288171469526,0.2679270203083452
1.730028833813897,0.2154502341549251
1.7310288504808415,0.1654127312140373
1.732028867147786,0.11801387040086384
1.7330288838147303,0.07338185761591176
1.734028900481675,0.031614484826515056
1.7350289171486193,-0.007220497173548394
1.7360289338155637,-0.04308537876398271
1.7370289504825083,-0.07597249149804465
1.7380289671494527,-0.10590420810247762
1.739028983816397,-0.13293294247757112
1.7400290004833416,-0.15714114969710724
1.741029017150286,-0.1786359099383441
1.7420290338172304,-0.19750542685586514
1.7430290504841748,-0.21382388970493457
1.7440290671511194,-0.22726305293631918
1.7450290838180638,-0.23782563238375834
1.7460291004850081,-0.24572403295669942
1.7470291171519527,-0.25116260258260437
1.7480291338188971,-0.2543376322069359
1.7490291504858415,-0.25543735579316634
1.7500291671527861,-0.25464195032277387
1.7510291838197305,-0.2521240317740511
1.7520292004866749,-0.24805266151235758
1.7530292171536195,-0.24259124322222508
1.7540292338205639,-0.2358951459861631
1.7550292504875082,-0.22811168190468223
1.7560292671544526,-0.219380106096306
1.7570292838213972,-0.20983161669755684
1.7580293004883416,-0.19958935486297238
1.759029317155286,-0.18876840476508744
1.7600293338222306,-0.17747579359445284
1.761029350489175,-0.16581358445470604
1.7620293671561194,-0.15390400251652528
1.763029383823064,-0.1418763156061554
1.7640294004900083,-0.12985187740416002
1.7650294171569527,-0.11794398460909937
1.7660294338238973,-0.1062578769375493
1.7670294504908417,-0.09489073712408318
1.768029467157786,-0.0839316909212905
1.7690294838247305,-0.07346180709975694
1.770029500491675,-0.06355409744808486
1.7710295171586194,-0.05427071250913021
1.7720295338255638,-0.04564003014993835
1.7730295504925084,-0.03766855463340395
1.7740295671594528,-0.030354600704788404
1.7750295838263972,-0.0236884261273517
1.7760296004933418,-0.017652231682367705
1.7770296171602862,-0.012220161169109867
1.7780296338272306,-0.007358301404864729
1.7790296504941752,-0.0030246822249193634
1.7800296671611195,0.0008307235174279451
1.781029683828064,0.004297463738568739
1.7820297004950083,0.007490281030894166
1.783029717161953,0.010428786470210344
1.7840297338288973,0.01312840442881232
1.7850297504958417,0.015604213408298097
1.7860297671627863,0.017870946039563525
1.7870297838297307,0.019942989082807224
1.788029800496675,0.021834383427525517
1.7890298171636196,0.02355882409251742
1.790029833830564,0.02512966022588003
1.7910298504975084,0.026559907917535944
1.792029867164453,0.02786235608036594
1.7930298838313974,0.029049512053029393
1.7940299004983418,0.03013353793753248
1.7950299171652861,0.03112624996518152
1.7960299338322308,0.03203911849658328
1.7970299504991751,0.03288326802164469
1.7980299671661195,0.03366947715957319
1.7990299838330641,0.03440817865887611
1.8000300005000085,0.03510945939736147
1.8010300171669529,0.0357833905412197
1.8020300338338975,0.03644277155261597
1.8030300505008419,0.037101728128085855
1.8040300671677862,0.03777404309852138
1.8050300838347306,0.038473102545180486
1.8060301005016752,0.03921193487977212
1.8070301171686196,0.040003221772831665
1.808030133835564,0.04085929564553667
1.8090301505025086,0.041792142228746984
1.810030167169453,0.04281340138262332
1.8110301838363974,0.043932715797040826
1.812030200503342,0.045143928166288295
1.8130302171702863,0.0464320950466051
1.8140302338372307,0.04778184158834422
1.8150302505041753,0.04917744707115782
1.8160302671711197,0.05060284490399892
1.817030283838064,0.05204162262512062
1.8180303005050085,0.05347702190207658
1.819030317171953,0.054891938531720065
1.8200303338388975,0.05626892244020557
1.8210303505058418,0.05759222163179261
1.8220303671727864,0.05886496499742509
1.8230303838397308,0.06010047924298232
1.8240304005066752,0.06131185350987749
1.8250304171736198,0.06251183106882219
1.8260304338405642,0.06371280931983012
1.8270304505075086,0.06492683979221378
1.8280304671744532,0.0661656281445868
1.8290304838413975,0.0674405341648626
1.830030500508342,0.06876257177025548
1.8310305171752863,0.07014250161950115
1.832030533842231,0.07159161413933798
1.8330305505091753,0.07312133603895424
1.8340305671761197,0.07474275317659475
1.8350305838430643,0.0764666055398029
1.8360306005100087,0.07830328724542347
1.837030617176953,0.08026284653960035
1.8380306338438976,0.0823549857977796
1.839030650510842,0.08458906152470483
1.8400306671777864,0.08697408435442323
1.841030683844731,0.08951677876226075
1.8420307005116754,0.09220508405318072
1.8430307171786198,0.09503495545292875
1.8440307338455642,0.09800629223965358
1.8450307505125088,0.1011027386086696
1.8460307671794531,0.10430787105444744
1.8470307838463975,0.10760519837061075
1.8480308005133421,0.11097816164993901
1.8490308171802865,0.11441013428436472
1.8500308338472309,0.11788442196497632
1.8510308505141755,0.12138448296767577
1.8520308671811199,0.12489581209922179
1.8530308838480642,0.12840500461411294
1.8540309005150089,0.13189860055599884
1.8550309171819532,0.13536307226768046
1.8560309338488976,0.13878482439111647
1.857030950515842,0.14215019386741687
1.8580309671827866,0.14544544993684888
1.859030983849731,0.14865679413883143
1.8600310005166754,0.15177036031194055
1.86103101718362,0.15477606355613446
1.8620310338505643,0.1577007069423204
1.8630310505175087,0.16059162532970012
1.8640310671844533,0.16349630905478404
1.8650310838513977,0.16646218075323302
1.866031100518342,0.16953659535986643
1.8670311171852865,0.1727668401086549
1.868031133852231,0.1762001345327257
1.8690311505191755,0.17988363046435826
1.8700311671861198,0.18386441203498935
1.8710311838530644,0.1881830940625011
1.8720312005200088,0.1928184419165781
1.8730312171869532,0.19771457482421945
1.8740312338538978,0.20281516473672617
1.8750312505208422,0.20806381590455017
1.8760312671877866,0.21340406487730176
1.8770312838547312,0.21877938050374163
1.8780313005216756,0.2241331639317884
1.87903131718862,0.22940874860851213
1.8800313338555643,0.23454940028014037
1.881031350522509,0.23950405060108407
1.8820313671894533,0.24427718409634194
1.8830313838563977,0.24890447475839572
1.8840314005233423,0.25342187649871106
1.8850314171902867,0.2578652755279039
1.886031433857231,0.2622704903557483
1.8870314505241756,0.2666732717911694
1.88803146719112,0.2711093029422504
1.8890314838580644,0.2756141992162246
1.890031500525009,0.2802235083194843
1.8910315171919534,0.2849684645850969
1.8920315338588978,0.28983883527813836
1.8930315505258422,0.29480095979729554
1.8940315671927868,0.2998208466559823
1.8950315838597311,0.304864436666763
1.8960316005266755,0.30989760294136026
1.8970316171936201,0.3148861508906473
1.8980316338605645,0.3197958182246555
1.8990316505275089,0.32459227495256715
1.9000316671944535,0.3292411233827222
1.9010316838613979,0.3337189605190943
1.9020317005283423,0.3380507329747949
1.9030317171952869,0.3422795480685731
1.9040317338622312,0.3464488800281461
1.9050317505291756,0.35060234296515747
1.90603176719612,0.35478366051450333
1.9070317838630646,0.35903664740010766
1.908031800530009,0.3634052094003151
1.9090318171969534,0.36793334334788336
1.910031833863898,0.37266513712999116
1.9110318505308423,0.3776377275395238
1.9120318671977867,0.3828189611962751
1.9130318838647313,0.38813730664950463
1.9140319005316757,0.3935208672543255
1.91503191719862,0.39889783742026214
1.9160319338655647,0.40419650261126094
1.917031950532509,0.40934523934568157
1.9180319671994535,0.4142725151963027
1.9190319838663978,0.41890688879031834
1.9200320005333424,0.42317700980934037
1.9210320172002868,0.42701902580562956
1.9220320338672312,0.43044252842886516
1.9230320505341758,0.4334990989281421
1.9240320672011202,0.4362409001465649
1.9250320838680646,0.438720185981658
1.9260321005350092,0.44098930138536063
1.9270321172019536,0.4431006823640306
1.928032133868898,0.44510685597844046
1.9290321505358425,0.4470604403437826
1.930032167202787,0.44901414462966294
1.9310321838697313,0.4510167597361271
1.9320322005366757,0.45307725494094575
1.9330322172036203,0.455181800035874
1.9340322338705647,0.45731638445431644
1.935032250537509,0.4594670886840962
1.9360322672044536,0.4616200842674515
1.937032283871398,0.46376163380103935
1.9380323005383424,0.4658780909359319
1.939032317205287,0.4679559003776197
1.9400323338722314,0.4699815978860082
1.9410323505391758,0.4719397914569893
1.9420323672061202,0.4737949781818946
1.9430323838730648,0.47550011292688343
1.9440324005400091,0.4770081019294413
1.9450324172069535,0.47827194248147126
1.9460324338738981,0.47924472292929293
1.9470324505408425,0.47987962267364315
1.9480324672077869,0.48012991216967493
1.9490324838747315,0.4799489529269589
1.9500325005416759,0.4792901975094827
1.9510325172086203,0.4781166985834323
1.9520325338755649,0.47648725167704525
1.9530325505425092,0.4745160483811686
1.9540325672094536,0.47231804376361064
1.955032583876398,0.4700082839465972
1.9560326005433426,0.467701906106772
1.957032617210287,0.4655141384751936
1.9580326338772314,0.46356030033733914
1.959032650544176,0.4619558020331017
1.9600326672111203,0.46081614495679196
1.9610326838780647,0.4602420813542415
1.9620327005450093,0.46018439645729814
1.9630327172119537,0.46050685167198635
1.964032733878898,0.46107222701298617
1.9650327505458427,0.46174339354939525
1.966032767212787,0.4623833134047278
1.9670327838797315,0.4628550397569134
1.9680328005466758,0.46302171683830184
1.9690328172136204,0.46274657993565577
1.9700328338805648,0.46189295539015895
1.9710328505475092,0.4603385388801953
1.9720328672144538,0.4581062488478787
1.9730328838813982,0.4553036920183499
1.9740329005483426,0.45203962059134717
1.9750329172152872,0.44842287782102247
1.9760329338822316,0.44455857957112477
1.977032950549176,0.44054602966955964
1.9780329672161205,0.43649597536239365
1.979032983883065,0.43251982125686056
1.9800330005500093,0.42872892148283076
1.9810330172169537,0.42522413909524737
1.9820330338838983,0.4219996069223107
1.9830330505508427,0.4189869712141858
1.984033067217787,0.4161170399043564
1.9850330838847317,0.413320570448936
1.986033100551676,0.41052826982667695
1.9870331172186204,0.40767079453896093
1.988033133885565,0.4046787506098079
1.9890331505525094,0.40148269358586863
1.9900331672194538,0.3980131285364312
1.9910331838863984,0.3942064748414245
1.9920332005533428,0.3900603682391292
1.9930332172202871,0.3856083969603994
1.9940332338872315,0.38088455864937526
1.9950332505541761,0.3759228004728271
1.9960332672211205,0.3707570191201631
1.997033283888065,0.36542106080342207
1.9980333005550095,0.3599487212572802
1.9990333172219539,0.35437374573904484
2.0000333338888985,0.3487298290286603
2.0010333505558426,0.343049962542221
2.0020333672227872,0.3373603458905518
2.003033383889732,0.3316831506487731
2.004033400556676,0.32604044295593443
2.0050334172236206,0.320454201335245
2.006033433890565,0.31494633159504765
2.0070334505575094,0.3095386888480459
2.008033467224454,0.3042530822822137
2.0090334838913986,0.29911127745804444
2.0100335005583427,0.2941349900243843
2.0110335172252873,0.28934245648437223
2.0120335338922315,0.2847162739979247
2.013033550559176,0.2802179057514624
2.0140335672261207,0.275808488523917
2.015033583893065,0.2714491086168619
2.0160336005600095,0.2671008018544977
2.017033617226954,0.26272455358366115
2.0180336338938982,0.25828129867382105
2.019033650560843,0.25373192151708723
2.0200336672277874,0.2490372560281965
2.0210336838947316,0.24416263906319127
2.022033700561676,0.23912086981227987
2.023033717228621,0.23395295852248396
2.024033733895565,0.22870023931421188
2.0250337505625096,0.22340399583050852
2.026033767229454,0.21810546123705035
2.0270337838963983,0.21284581822215473
2.028033800563343,0.20766619899676655
2.0290338172302875,0.20260768529446715
2.0300338338972317,0.19771130837146986
2.0310338505641763,0.19301381242594268
2.032033867231121,0.18850745090627413
2.033033883898065,0.1841578857766208
2.0340339005650097,0.17993037273009496
2.0350339172319543,0.17579011698244965
2.0360339338988984,0.17170227327206525
2.037033950565843,0.16763194585995922
2.038033967232787,0.1635441885297804
2.039033983899732,0.1594040045878179
2.0400340005666764,0.15517634686298917
2.0410340172336205,0.1508302485226648
2.042034033900565,0.14637825234789664
2.0430340505675098,0.141858971311657
2.044034067234454,0.13731132226133586
2.0450340839013985,0.13277417156695853
2.046034100568343,0.12828633512118295
2.0470341172352873,0.12388657833930712
2.048034133902232,0.11961361615925707
2.0490341505691765,0.11550611304159467
2.0500341672361206,0.11160268296951671
2.0510341839030652,0.10793766063141988
2.05203420057001,0.10450050039105363
2.053034217236954,0.1012536152707292
2.0540342339038986,0.0981589972980252
2.055034250570843,0.09517858802315234
2.0560342672377874,0.0922742785189605
2.057034283904732,0.08940790938092912
2.0580343005716766,0.08654127072717287
2.0590343172386207,0.0836361021984395
2.0600343339055653,0.08065409295811517
2.0610343505725095,0.0775615021775673
2.062034367239454,0.07437590628072982
2.0630343839063987,0.07113954491866989
2.064034400573343,0.06789286471292709
2.0650344172402875,0.06467632197570938
2.066034433907232,0.061530382709897836
2.0670344505741762,0.05849552260904348
2.068034467241121,0.055612227057373564
2.0690344839080654,0.052920991129783185
2.0700345005750096,0.05046231959184049
2.071034517241954,0.048271919341847574
2.072034533908899,0.046333998969427845
2.073034550575843,0.044601513819769636
2.0740345672427876,0.04302698956773667
2.075034583909732,0.04156296157886408
2.0760346005766763,0.04016197490936116
2.077034617243621,0.038776584306106365
2.0780346339105655,0.03735935420665108
2.0790346505775097,0.03586285873921747
2.0800346672444543,0.03423968172270214
2.081034683911399,0.03244704784130335
2.082034700578343,0.03049207392500499
2.0830347172452877,0.028412285153899167
2.0840347339122323,0.0262456486191751
2.0850347505791764,0.024030141102692325
2.086034767246121,0.02180374907698179
2.087034783913065,0.019604468705246805
2.08803480058001,0.01747030584136332
2.0890348172469544,0.015439276029878057
2.0900348339138985,0.013549404506009867
2.091034850580843,0.011836353337437149
2.0920348672477878,0.010310099868256132
2.093034883914732,0.008964909557645272
2.0940349005816765,0.007794831414538874
2.095034917248621,0.006793924138542627
2.0960349339155653,0.005956256119935401
2.09703495058251,0.005275905439666731
2.0980349672494545,0.004746959869357872
2.0990349839163986,0.00436351687130237
2.1000350005833432,0.004119683598466043
2.101035017250288,0.004008010542057535
2.102035033917232,0.004004006074198289
2.1030350505841766,0.004072712685420036
2.104035067251121,0.004179031418389337
2.1050350839180654,0.004287898971979773
2.10603510058501,0.004364285795414461
2.1070351172519546,0.004373172936788951
2.1080351339188987,0.004279551134870964
2.1090351505858433,0.004048420819098925
2.110035167252788,0.0036447921095839574
2.111035183919732,0.003037713216105009
2.1120352005866767,0.002240331150949371
2.113035217253621,0.001292997535663933
2.1140352339205655,0.00023647395501355875
2.11503525058751,-0.0008884683155657384
2.1160352672544542,-0.002041048309964934
2.117035283921399,-0.0031804753714042566
2.1180353005883434,-0.0042659491524318065
2.1190353172552876,-0.005256659614923954
2.120035333922232,-0.006111787030084631
2.121035350589177,-0.006794039669111627
2.122035367256121,-0.007305042172408924
2.1230353839230656,-0.007670516602669536
2.12403540059001,-0.00791653422618693
2.1250354172569543,-0.008069156618583422
2.126035433923899,-0.008154435664809024
2.1270354505908435,-0.008198413559142208
2.1280354672577877,-0.008227122805189738
2.1290354839247323,-0.008266586215885949
2.130035500591677,-0.00834281691349401
2.131035517258621,-0.008479754481014328
2.1320355339255657,-0.008678497859155778
2.1330355505925103,-0.008925939960022649
2.1340355672594544,-0.009208750245672921
2.135035583926399,-0.0095135884874924
2.136035600593343,-0.009827104766195078
2.137035617260288,-0.010135939471823395
2.1380356339272324,-0.010426723303747764
2.1390356505941766,-0.010686077270666844
2.140035667261121,-0.010900612690607424
2.1410356839280658,-0.01105828935132868
2.14203570059501,-0.011162162558694068
2.1430357172619545,-0.011224708234800691
2.144035733928899,-0.011258536218429035
2.1450357505958433,-0.01127624665768756
2.146035767262788,-0.011290430010012889
2.1470357839297325,-0.01131366704217009
2.1480358005966766,-0.0113585288302521
2.1490358172636213,-0.011437576759680237
2.150035833930566,-0.011563362525203916
2.15103585059751,-0.01174708887497005
2.1520358672644546,-0.011984973665575525
2.153035883931399,-0.01226383825876521
2.1540359005983434,-0.012570349766527864
2.155035917265288,-0.012891165610180246
2.1560359339322326,-0.013212933520367712
2.1570359505991767,-0.013522291537063226
2.1580359672661213,-0.013805868009568612
2.159035983933066,-0.014050281596513366
2.16003600060001,-0.014242141265855268
2.1610360172669547,-0.014369259687176308
2.162036033933899,-0.01443308088542061
2.1630360506008435,-0.014443624149713787
2.164036067267788,-0.014411032774209213
2.1650360839347322,-0.01434544036238904
2.166036100601677,-0.014256970827062912
2.1670361172686214,-0.014155738390369106
2.1680361339355656,-0.014051847583773936
2.16903615060251,-0.013955393248071879
2.170036167269455,-0.013876460533385872
2.171036183936399,-0.013824341396873427
2.1720362006033436,-0.013799462299806184
2.173036217270288,-0.013796644203872485
2.1740362339372323,-0.013810610261127192
2.175036250604177,-0.013836073932954131
2.1760362672711215,-0.013867738990064953
2.1770362839380657,-0.013900299512499735
2.1780363006050103,-0.013928439889626344
2.179036317271955,-0.013946834820141148
2.180036333938899,-0.01395014931206865
2.1810363506058437,-0.01393375306682583
2.1820363672727883,-0.013901124391330066
2.1830363839397324,-0.013860882331193683
2.184036400606677,-0.01382171824865815
2.1850364172736216,-0.013792313815292813
2.186036433940566,-0.013781341011995879
2.1870364506075104,-0.013797462128993097
2.1880364672744546,-0.013849329765838731
2.189036483941399,-0.013945586831415
2.1900365006083438,-0.014094866543932596
2.191036517275288,-0.014304481549155278
2.1920365339422325,-0.014566757070602471
2.193036550609177,-0.014864468219608242
2.1940365672761213,-0.015180226829638155
2.195036583943066,-0.015496635043486121
2.1960366006100105,-0.015796285313274164
2.1970366172769547,-0.016061760400452624
2.1980366339438993,-0.0162756333757998
2.199036650610844,-0.016420467619422386
2.200036667277788,-0.01647881682075523
2.2010366839447326,-0.01643499357446781
2.2020367006116772,-0.016293618018463605
2.2030367172786214,-0.016072294165290216
2.204036733945566,-0.01578664035071427
2.2050367506125106,-0.015451926131905321
2.2060367672794547,-0.01508688993233688
2.2070367839463993,-0.014710273865337652
2.208036800613344,-0.01434079707474419
2.209036817280288,-0.013997161906136665
2.2100368339472327,-0.013698051359503811
2.211036850614177,-0.013460611166669339
2.2120368672811215,-0.013284479163682038
2.213036883948066,-0.013158042861030353
2.2140369006150102,-0.013069481464749913
2.215036917281955,-0.01300695060172739
2.2160369339488994,-0.01295858231970045
2.2170369506158436,-0.012912485087258115
2.218036967282788,-0.012856743793840584
2.219036983949733,-0.012779419749739026
2.220037000616677,-0.012668550686095893
2.2210370172836216,-0.012513131665715063
2.222037033950566,-0.012313525771116506
2.2230370506175103,-0.012077416472404012
2.224037067284455,-0.011812585815271032
2.2250370839513995,-0.01152679226626228
2.2260371006183437,-0.01122777071277346
2.2270371172852883,-0.010923232463051375
2.228037133952233,-0.010620865246194123
2.229037150619177,-0.010328333212150945
2.2300371672861217,-0.010053276931722165
2.2310371839530663,-0.009802714003359365
2.2320372006200104,-0.009576639498122928
2.233037217286955,-0.009370494692629745
2.2340372339538996,-0.00917962111463241
2.235037250620844,-0.008999336712734972
2.2360372672877884,-0.008824935856392543
2.2370372839547326,-0.008651689335911318
2.238037300621677,-0.008474844362448716
2.2390373172886218,-0.008289624568013215
2.240037333955566,-0.008091230005464564
2.2410373506225105,-0.007875386094341482
2.242037367289455,-0.007644239638260753
2.2430373839563993,-0.007404102239296809
2.244037400623344,-0.007161333102369842
2.2450374172902885,-0.006922267853251049
2.2460374339572327,-0.006693218538562919
2.2470374506241773,-0.006480473625779059
2.248037467291122,-0.006290298003224143
2.249037483958066,-0.006128932980074007
2.2500375006250106,-0.006002596286355793
2.2510375172919552,-0.0059168418007818965
2.2520375339588994,-0.005869641424713315
2.253037550625844,-0.005854011813102112
2.2540375672927886,-0.005862861327570601
2.2550375839597327,-0.005889074750592377
2.2560376006266774,-0.005925513285491906
2.257037617293622,-0.005965014556445016
2.258037633960566,-0.006000392608478545
2.2590376506275107,-0.0060244379074705645
2.2600376672944553,-0.0060299173401502796
2.2610376839613995,-0.0060107829345006185
2.262037700628344,-0.005975310414445285
2.2630377172952882,-0.005941150701471505
2.264037733962233,-0.005926094311227493
2.2650377506291774,-0.005947908180212899
2.2660377672961216,-0.00602433566577842
2.267037783963066,-0.006173096546125844
2.268037800630011,-0.006411887020308292
2.269037817296955,-0.006758379708229711
2.2700378339638996,-0.007230223650645428
2.271037850630844,-0.007841592630182624
2.2720378672977883,-0.008565440697394454
2.273037883964733,-0.009347602910551173
2.2740379006316775,-0.010133415340595968
2.2750379172986217,-0.010868190479322411
2.2760379339655663,-0.011497217239375431
2.277037950632511,-0.011965760954251595
2.278037967299455,-0.012219063378298025
2.2790379839663997,-0.012202342686713434
2.2800380006333443,-0.011860793475546985
2.2810380173002884,-0.011145687297124446
2.282038033967233,-0.010081483944548584
2.2830380506341776,-0.008740965218407523
2.284038067301122,-0.007197746572671325
2.2850380839680664,-0.005525419882160277
2.2860381006350106,-0.003797553442547008
2.287038117301955,-0.002087691970353918
2.2880381339688998,-0.0004693566029554488
2.289038150635844,0.0009839551014223977
2.2900381673027885,0.0021987691637035856
2.291038183969733,0.0031071134670545312
2.2920382006366773,0.0037071467144986913
2.293038217303622,0.004040880080129617
2.2940382339705665,0.004151133645604748
2.2950382506375107,0.004080751071729552
2.2960382673044553,0.0038725995984590874
2.2970382839714,0.0035695700448965797
2.298038300638344,0.003214576809294002
2.2990383173052886,0.002850557869052898
2.3000383339722332,0.00252047478072419
2.3010383506391774,0.002266560661352106
2.302038367306122,0.00212194729195823
2.3030383839730666,0.0021137160235115224
2.3040384006400108,0.0022688619464954814
2.3050384173069554,0.0026144328997161487
2.3060384339739,0.003177565625594219
2.307038450640844,0.003985429322495432
2.3080384673077887,0.0050652167679342275
2.3090384839747333,0.0064441443185745545
2.3100385006416775,0.008149451910227304
2.311038517308622,0.0102045973979357
2.3120385339755662,0.012586628841373033
2.313038550642511,0.01524158576758562
2.3140385673094555,0.018114963561396136
2.3150385839763996,0.02115228118677731
2.316038600643344,0.024299081186849918
2.317038617310289,0.02750092968388564
2.318038633977233,0.03070341637930139
2.3190386506441776,0.03385215455366537
2.320038667311122,0.036892781066694816
2.3210386839780663,0.03977501162833054
2.322038700645011,0.042498339140547514
2.3230387173119555,0.04509566417222687
2.3240387339788997,0.047600527960568434
2.3250387506458443,0.05004649532192201
2.326038767312789,0.05246715465178293
2.327038783979733,0.05489611792479872
2.3280388006466777,0.05736702069476466
2.3290388173136223,0.05991352209462629
2.3300388339805664,0.06256930483647379
2.331038850647511,0.06536644796394282
2.3320388673144556,0.068316292147361
2.3330388839814,0.07141310007968993
2.3340389006483444,0.07465002436755035
2.335038917315289,0.07802010648765535
2.336038933982233,0.08151624800791141
2.3370389506491778,0.08513121058742099
2.338038967316122,0.0888576159764761
2.3390389839830665,0.09268794601656852
2.340039000650011,0.0966145426403824
2.3410390173169553,0.10062975935337921
2.3420390339839,0.10472768901212245
2.3430390506508445,0.1089035556282475
2.3440390673177887,0.11315246728637907
2.3450390839847333,0.11746939216233859
2.346039100651678,0.12184915852313613
2.347039117318622,0.12628645472698216
2.3480391339855666,0.13077582922327943
2.3490391506525112,0.13531169055262748
2.3500391673194554,0.13988830734681462
2.3510391839864,0.14449974011324357
2.3520392006533446,0.14913905845254474
2.3530392173202888,0.15379861417225607
2.3540392339872334,0.15847060815629244
2.355039250654178,0.16314710137976957
2.356039267321122,0.16782001490899573
2.3570392839880667,0.17248112990147582
2.3580393006550113,0.17712208760590284
2.3590393173219555,0.18173438936217054
2.3600393339889,0.18630939660136553
2.3610393506558442,0.19083813829126156
2.362039367322789,0.1953090879130151
2.3630393839897335,0.19970893214897953
2.3640394006566776,0.20402418606227216
2.365039417323622,0.20824122480720642
2.366039433990567,0.21234628362928482
2.367039450657511,0.2163254578652103
2.3680394673244556,0.22016470294287807
2.3690394839914,0.22384983438137987
2.3700395006583443,0.22736652779099684
2.371039517325289,0.2307020086050015
2.3720395339922336,0.23386467866182944
2.3730395506591777,0.2368773909305875
2.3740395673261223,0.23976314226660728
2.375039583993067,0.2425447896164201
2.376039600660011,0.24524505001774954
2.3770396173269557,0.2478865005995154
2.3780396339939003,0.25049157858182786
2.3790396506608444,0.2530825812759959
2.380039667327789,0.2556816660845216
2.3810396839947336,0.25830780445279145
2.382039700661678,0.26094118563983654
2.3830397173286224,0.26353877223133493
2.384039733995567,0.26606214924245625
2.385039750662511,0.2684721508381499
2.3860397673294558,0.2707298894914266
2.3870397839964,0.2727967561021406
2.3880398006633445,0.2746344199969845
2.389039817330289,0.27620482892949266
2.3900398339972333,0.2774702090800383
2.391039850664178,0.27839545819055445
2.3920398673311225,0.2789762826054893
2.3930398839980667,0.2792297321544396
2.3940399006650113,0.2791735531004903
2.395039917331956,0.2788257701335671
2.3960399339989,0.2782046863704355
2.3970399506658446,0.27732888335470135
2.3980399673327892,0.2762172210568124
2.3990399839997334,0.27488883787405516
2.400040000666678,0.2733631506305573
2.4010400173336226,0.2716584144085186
2.4020400340005668,0.26977468635613083
2.4030400506675114,0.2676995029762609
2.404040067334456,0.26542042267815497
2.4050400840014,0.2629252523818222
2.4060401006683447,0.26020196916189725
2.4070401173352893,0.25723880403333715
2.4080401340022335,0.2540242664379419
2.409040150669178,0.25054714491314173
2.4100401673361227,0.2467965089931594
2.411040184003067,0.2427642507000453
2.4120402006700115,0.238475355359467
2.4130402173369556,0.23397790910267935
2.4140402340039,0.2293207384478928
2.415040250670845,0.22455294834015418
2.416040267337789,0.21972392215135145
2.4170402840047336,0.21488332168021212
2.418040300671678,0.21008108715230925
2.4190403173386223,0.20536743722005057
2.420040334005567,0.20079286896268642
2.4210403506725116,0.1964041453203375
2.4220403673394557,0.1921962456254079
2.4230403840064003,0.18812807476401286
2.424040400673345,0.18415807291927416
2.425040417340289,0.18024495870115126
2.4260404340072337,0.17634772914645022
2.4270404506741783,0.17242565971881224
2.4280404673411224,0.16843830430872003
2.429040484008067,0.16434549523349476
2.4300405006750116,0.16010734323730536
2.431040517341956,0.15568754770996884
2.4320405340089004,0.1510932792056944
2.433040550675845,0.14636151375152318
2.434040567342789,0.14151238385115247
2.4350405840097338,0.1365729316509901
2.436040600676678,0.13157663623118873
2.4370406173436225,0.1265566742038998
2.438040634010567,0.12154591971326872
2.4390406506775113,0.1165769444354437
2.440040667344456,0.11168201757856276
2.4410406840114005,0.1068920706122784
2.4420407006783447,0.10222414728526058
2.4430407173452893,0.09768542710376485
2.444040734012234,0.09328258777640587
2.445040750679178,0.08902200454379665
2.4460407673461226,0.08490975017854413
2.4470407840130672,0.0809515949852578
2.4480408006800114,0.07715300680053709
2.449040817346956,0.07351915099298
2.4500408340139006,0.07005489046317848
2.4510408506808448,0.06676354465150551
2.4520408673477894,0.06363175302857946
2.453040884014734,0.06063427964598039
2.454040900681678,0.05774534247293668
2.4550409173486227,0.05493885701067711
2.4560409340155673,0.05218843629242214
2.4570409506825115,0.04946739088339018
2.458040967349456,0.04674872888079442
2.4590409840164007,0.0440051559138484
2.460041000683345,0.04120907514375753
2.4610410173502895,0.0383351614211257
2.4620410340172336,0.035391952272199254
2.4630410506841782,0.032411921204489984
2.464041067351123,0.02942775445090944
2.465041084018067,0.02647183577636653
2.4660411006850116,0.0235762464777655
2.467041117351956,0.02077276538400968
2.4680411340189004,0.018092868855995918
2.469041150685845,0.015567730786618222
2.4700411673527896,0.013228222600765411
2.4710411840197337,0.011103031987601536
2.4720412006866783,0.009195432636381033
2.473041217353623,0.007490509516866044
2.474041234020567,0.0059726612706582066
2.4750412506875117,0.004625984071357762
2.4760412673544563,0.0034342716245586036
2.4770412840214004,0.0023810151678516755
2.478041300688345,0.0014494034708237265
2.4790413173552897,0.000622322835059654
2.480041334022234,-0.00011764290586183807
2.4810413506891784,-0.000788807859372926
2.482041367356123,-0.0014177825993776528
2.483041384023067,-0.002037196719876424
2.484041400690012,-0.00268010615049415
2.4850414173569564,-0.003379869288859574
2.4860414340239005,-0.004169455190524814
2.487041450690845,-0.005032289185057576
2.4880414673577893,-0.006006733479494722
2.489041484024734,-0.007173601121873929
2.4900415006916785,-0.008609256771434856
2.4910415173586227,-0.010382925750440917
2.4920415340255673,-0.01252305279604644
2.493041550692512,-0.015027549596845604
2.494041567359456,-0.01788930881478317
2.4950415840264006,-0.021096774723001865
2.4960416006933452,-0.024633943205848264
2.4970416173602894,-0.02848036175886983
2.498041634027234,-0.032611129488816386
2.4990416506941786,-0.036996897113633805
2.5000416673611228,-0.04160386696247452
2.5010416840280674,-0.04639696534021867
2.502041700695012,-0.0513797484808572
2.503041717361956,-0.05658237519636542
2.5040417340289007,-0.06203124168914213
2.5050417506958453,-0.06774827295731867
2.5060417673627895,-0.07375080951444452
2.507041784029734,-0.08005169323347172
2.5080418006966787,-0.0866593175185596
2.509041817363623,-0.09357762738506636
2.5100418340305675,-0.100806119459554
2.5110418506975116,-0.10833734692549839
2.5120418673644562,-0.11612533846751602
2.513041884031401,-0.12409501462851227
2.514041900698345,-0.13216629775101496
2.5150419173652896,-0.14025466178874257
2.516041934032234,-0.14831434240718178
2.5170419506991784,-0.15625840263922197
2.518041967366123,-0.1638728526384675
2.5190419840330676,-0.17094953286362274
2.5200420007000117,-0.17728826796595323
2.5210420173669563,-0.18269778584612825
2.522042034033901,-0.18700742302857803
2.523042050700845,-0.19006367240472744
2.5240420673677897,-0.19172121749947688
2.5250420840347343,-0.19184272603027652
2.5260421007016785,-0.19029884990712692
2.527042117368623,-0.18696822523258305
2.5280421340355677,-0.18173747230174955
2.529042150702512,-0.1745011956022832
2.5300421673694564,-0.1651619838143878
2.531042184036401,-0.15363155851386456
2.532042200703345,-0.13984549564475374
2.53304221737029,-0.12375893147548772
2.5340422340372344,-0.10533524947431208
2.5350422507041785,-0.08454581730204841
2.536042267371123,-0.06136998681204678
2.5370422840380673,-0.03579509405021584
2.538042300705012,-0.007816459255003525
2.5390423173719565,0.022562613142552944
2.5400423340389007,0.055330834518901556
2.5410423507058453,0.09047158515535099
2.54204236737279,0.1279971280579866
2.543042384039734,0.1679387405175148
2.5440424007066786,0.21032033479803894
2.5450424173736232,0.25531894989013765
2.5460424340405674,0.3034394679637662
2.547042450707512,0.354170763697877
2.5480424673744566,0.4069093229603022
2.5490424840414008,0.4610782145236414
2.5500425007083454,0.5161270900653077
2.55104251737529,0.5715294061940299
2.552042534042234,0.626746376075796
2.5530425507091787,0.681237249523976
2.5540425673761233,0.7344871984671231
2.5550425840430675,0.7860079777385067
2.556042600710012,0.8353379250762575
2.5570426173769567,0.8820419611232705
2.558042634043901,0.9257115894272456
2.5590426507108455,0.965964896440617
2.5600426673777896,1.0024465515206624
2.5610426840447342,1.0348294029881198
2.562042700711679,1.0628353192007136
2.563042717378623,1.0862293133021514
2.5640427340455676,1.1048033682892082
2.565042750712512,1.1183760500634785
2.5660427673794564,1.1267925074313339
2.567042784046401,1.1299244721039352
2.5680428007133456,1.1276702586972287
2.5690428173802897,1.1199547647319537
2.5700428340472343,1.1067294706336346
2.571042850714179,1.0879717531540785
2.572042867381123,1.0636758638561465
2.5730428840480677,1.033855442793047
2.5740429007150123,0.9985608502175428
2.5750429173819565,0.9582297489643382
2.576042934048901,0.9135481486074186
2.5770429507158457,0.8651421132014079
2.57804296738279,0.8136089188809336
2.5790429840497344,0.7595170538605845
2.580043000716679,0.7034062184350092
2.581043017383623,0.6457889785723095
2.582043034050568,0.5871726304666426
2.5830430507175124,0.528053180183729
2.5840430673844565,0.46889826229217535
2.585043084051401,0.41014672344049874
2.5860431007183453,0.3522086223572264
2.58704311738529,0.2954652298508489
2.5880431340522345,0.24026902880991646
2.5890431507191787,0.1869437142028907
2.5900431673861233,0.13578419307824466
2.591043184053068,0.08705317612566478
2.592043200720012,0.04093582589279959
2.5930432173869566,-0.0024479050107959746
2.5940432340539012,-0.04300772666647283
2.5950432507208454,-0.08068213707561019
2.59604326738779,-0.11543842215955125
2.5970432840547346,-0.14727265575970525
2.5980433007216788,-0.1762096996374773
2.5990433173886234,-0.20230320347429678
2.600043334055568,-0.2256356048715721
2.601043350722512,-0.24631480216133725
2.6020433673894567,-0.26442960437596474
2.6030433840564013,-0.2798208582236039
2.6040434007233455,-0.292218360643944
2.60504341739029,-0.30182348505540024
2.6060434340572347,-0.30883885015245854
2.607043450724179,-0.31345890659405046
2.6080434673911235,-0.3158698706888428
2.609043484058068,-0.3162497235213779
2.6100435007250122,-0.314768209590174
2.611043517391957,-0.311587797933841
2.612043534058901,-0.3068766437310337
2.6130435507258456,-0.30080514836624156
2.61404356739279,-0.2935357343904247
2.6150435840597344,-0.28522258915601506
2.616043600726679,-0.2760116648169323
2.6170436173936236,-0.2660406783285609
2.6180436340605677,-0.2554391114477643
2.6190436507275123,-0.24432821073287753
2.620043667394457,-0.23282098754372582
2.621043684061401,-0.2210238814215411
2.6220437007283457,-0.2090593148878782
2.6230437173952903,-0.1970597811799328
2.6240437340622345,-0.18514999015158098
2.625043750729179,-0.17344641645815892
2.6260437673961237,-0.1620572995564843
2.627043784063068,-0.1510826437048448
2.6280438007300124,-0.1406142179630198
2.629043817396957,-0.13073555619224903
2.630043834063901,-0.12152195705525376
2.631043850730846,-0.11303752221784624
2.6320438673977904,-0.10529474079914397
2.6330438840647346,-0.09826494904165697
2.634043900731679,-0.09191042818025452
2.6350439173986233,-0.08618522425127843
2.636043934065568,-0.08103514809255463
2.6370439507325125,-0.07639777534337719
2.6380439673994567,-0.07220244644451856
2.6390439840664013,-0.06837026663822596
2.640044000733346,-0.06481410596822648
2.64104401740029,-0.061441629989126605
2.6420440340672346,-0.05820019274310176
2.6430440507341793,-0.055092209174332954
2.6440440674011234,-0.05213375168010735
2.645044084068068,-0.049341788402787745
2.6460441007350126,-0.04673409980644228
2.6470441174019568,-0.044329278676842436
2.6480441340689014,-0.042146730121466455
2.649044150735846,-0.04020667156949345
2.65004416740279,-0.03853013277180835
2.6510441840697347,-0.037136222274964006
2.6520442007366793,-0.03600435094861758
2.6530442174036235,-0.035083756409742435
2.654044234070568,-0.034323702956414556
2.6550442507375127,-0.03367426720841307
2.656044267404457,-0.033086338107222626
2.6570442840714015,-0.03251161691603077
2.658044300738346,-0.03190261721972968
2.6590443174052902,-0.03121266492491495
2.660044334072235,-0.03039589825988776
2.661044350739179,-0.02940986929633082
2.6620443674061236,-0.028251725352548114
2.663044384073068,-0.026949207993701294
2.6640444007400124,-0.025531632982284162
2.665044417406957,-0.02402912840249299
2.6660444340739016,-0.02247263466022923
2.6670444507408457,-0.020893904483097726
2.6680444674077903,-0.019325502920408674
2.669044484074735,-0.017800807343175473
2.670044500741679,-0.016354007444115137
2.6710445174086237,-0.015018125594371809
2.6720445340755683,-0.013797308567560077
2.6730445507425125,-0.012673627534611315
2.674044567409457,-0.011629375257922063
2.6750445840764017,-0.010647656821592301
2.676044600743346,-0.009712389631428085
2.6770446174102904,-0.008808303414937914
2.678044634077235,-0.007920940221334535
2.679044650744179,-0.00703665442153471
2.680044667411124,-0.006142612708160416
2.6810446840780684,-0.005221321812913332
2.6820447007450126,-0.004243331713673041
2.683044717411957,-0.0032006528931305344
2.6840447340789018,-0.002087390374352044
2.685044750745846,-0.0008976916018034768
2.6860447674127905,0.00037425355864604583
2.6870447840797347,0.0017342128197271082
2.6880448007466793,0.0031879114727658355
2.689044817413624,0.004741032387689021
2.690044834080568,0.006399216013020834
2.6910448507475127,0.00816765597902101
2.6920448674144573,0.010045366199336169
2.6930448840814014,0.01202654912315779
2.694044900748346,0.014105239501337859
2.6950449174152906,0.016275429663326114
2.696044934082235,0.01853106951717076
2.6970449507491794,0.020866066549516005
2.698044967416124,0.023274285825606807
2.699044984083068,0.025749549989285213
2.7000450007500127,0.02828563926299274
2.7010450174169574,0.0308765180948633
2.7020450340839015,0.03351956883099195
2.703045050750846,0.03621483089749881
2.7040450674177907,0.038962372835874795
2.705045084084735,0.041762223285401356
2.7060451007516795,0.04461441733572783
2.707045117418624,0.047518991963334735
2.7080451340855682,0.05047594332704039
2.709045150752513,0.053485225164257466
2.710045167419457,0.05654674879100085
2.7110451840864016,0.05966021750428424
2.712045200753346,0.06282274873321356
2.7130452174202904,0.0660294254240921
2.714045234087235,0.0692752348493943
2.7150452507541796,0.0725551218601913
2.7160452674211237,0.0758639888861537
2.7170452840880683,0.0791966959355464
2.718045300755013,0.08254806059523659
2.719045317421957,0.08591285803068804
2.7200453340889017,0.08928582098596458
2.7210453507558463,0.09266213709975583
2.7220453674227905,0.0960446359794111
2.723045384089735,0.09944214710461469
2.7240454007566797,0.10286362046876235
2.725045417423624,0.1063179636438434
2.7260454340905684,0.10981404178045057
2.727045450757513,0.1133606776077727
2.728045467424457,0.11696665143359891
2.729045484091402,0.12064070114431093
2.7300455007583464,0.12439424329297748
2.7310455174252906,0.12824835857786318
2.732045534092235,0.13220512366971804
2.7330455507591798,0.13626013961954345
2.734045567426124,0.1404089064303713
2.7350455840930685,0.14464694497778496
2.7360456007600127,0.1489697970099232
2.7370456174269573,0.15337302514747195
2.738045634093902,0.1578522128836766
2.739045650760846,0.1624029645843334
2.7400456674277907,0.16702090548779416
2.7410456840947353,0.17170133059240097
2.7420457007616794,0.176434064690902
2.743045717428624,0.18120460160284557
2.7440457340955686,0.18599833662299184
2.745045750762513,0.19080068591864768
2.7460457674294574,0.19559708652967941
2.747045784096402,0.20037299636850472
2.748045800763346,0.20511389422009654
2.7490458174302908,0.20980527974197502
2.7500458340972354,0.21443267346421951
2.7510458507641795,0.21898252980738894
2.752045867431124,0.2234556894276909
2.7530458840980687,0.227864443784749
2.754045900765013,0.23222142150930752
2.7550459174319575,0.23653927210466216
2.756045934098902,0.24083066594666303
2.7570459507658462,0.2451082942837086
2.758045967432791,0.24938486923675576
2.7590459840997354,0.25367312379931306
2.7600460007666796,0.25798581183744457
2.761046017433624,0.2623354561639171
2.7620460341005684,0.2667306125844765
2.763046050767513,0.27117667226153785
2.7640460674344576,0.27567895831988853
2.7650460841014017,0.28024281475686263
2.7660461007683463,0.28487360644235343
2.767046117435291,0.2895767191188057
2.768046134102235,0.2943575594012196
2.7690461507691797,0.2992215547771423
2.7700461674361243,0.30417415360668026
2.7710461841030685,0.30921887570718
2.772046200770013,0.3143282153353759
2.7730462174369577,0.3194497898869471
2.774046234103902,0.32453053676335625
2.7750462507708464,0.3295174142386181
2.776046267437791,0.3343574014593013
2.777046284104735,0.33899749844452337
2.77804630077168,0.3433847260859605
2.7790463174386244,0.3474661261478398
2.7800463341055686,0.35118876126694343
2.781046350772513,0.35450339081849463
2.7820463674394578,0.3574196944787921
2.783046384106402,0.3599947936294877
2.7840464007733465,0.36228717680256806
2.7850464174402907,0.36435535340256825
2.7860464341072353,0.3662578537065815
2.78704645077418,0.3680532288642526
2.788046467441124,0.36980005089778145
2.7890464841080687,0.3715569127019154
2.7900465007750133,0.3733824280439613
2.7910465174419574,0.37533163998949554
2.792046534108902,0.37740171142440176
2.7930465507758466,0.37954302520984307
2.794046567442791,0.3817046451080357
2.7950465841097354,0.38383565575374917
2.79604660077668,0.38588516265430656
2.797046617443624,0.38780229218958134
2.7980466341105688,0.3895361916120034
2.7990466507775134,0.39103602904655466
2.8000466674444575,0.3922509934907712
2.801046684111402,0.39313389963439915
2.8020467007783467,0.3936960541671763
2.803046717445291,0.3939962327113508
2.8040467341122355,0.3940946017658629
2.80504675077918,0.39405134891524296
2.8060467674461242,0.3939266924343278
2.807046784113069,0.3937808851914251
2.8080468007800135,0.39367420194859304
2.8090468174469576,0.3936669383404405
2.810046834113902,0.3938194104591537
2.8110468507808464,0.39418751895475385
2.812046867447791,0.39475485625735723
2.8130468841147356,0.3954461130172472
2.8140469007816797,0.39618428508746995
2.8150469174486243,0.3968923891936262
2.816046934115569,0.3974931798642515
2.817046950782513,0.3979011152909467
2.8180469674494577,0.3980388548252498
2.8190469841164023,0.397834399522915
2.8200470007833465,0.39721573256801984
2.821047017450291,0.396115479497154
2.8220470341172357,0.3945427716772958
2.82304705078418,0.39256931051408467
2.8240470674511244,0.39026861725100376
2.825047084118069,0.3877141952598582
2.826047100785013,0.38497953004077723
2.827047117451958,0.3821380892222116
2.8280471341189024,0.3792633225609349
2.8290471507858466,0.37642866194204283
2.830047167452791,0.3737075213789565
2.8310471841197358,0.3711686960336131
2.83204720078668,0.3688049455372621
2.8330472174536245,0.3665465925925204
2.834047234120569,0.36432209393316756
2.8350472507875133,0.3620598884213017
2.836047267454458,0.359688397047344
2.837047284121402,0.3571360229300396
2.8380473007883467,0.35433115131645787
2.8390473174552913,0.35120214958198787
2.8400473341222354,0.34767736723034237
2.84104735078918,0.34368998564515607
2.8420473674561246,0.33925379245611836
2.843047384123069,0.33444901975492614
2.8440474007900134,0.32935786598686617
2.845047417456958,0.3240625117255466
2.846047434123902,0.31864511967290343
2.8470474507908468,0.3131878346591905
2.8480474674577914,0.3077727836429843
2.8490474841247355,0.3024820757111843
2.85004750079168,0.2973978020790173
2.8510475174586247,0.2925978258931499
2.852047534125569,0.28808956601729335
2.8530475507925135,0.28382213885373425
2.854047567459458,0.27974288839160544
2.8550475841264022,0.2757991407483565
2.856047600793347,0.2719382041697614
2.8570476174602915,0.26810736902991433
2.8580476341272356,0.26425390783124
2.85904765079418,0.2603250752044781
2.8600476674611244,0.25626810790869353
2.861047684128069,0.25203248038067116
2.8620477007950136,0.24760561385060312
2.8630477174619577,0.24300645482348465
2.8640477341289023,0.23825488933885458
2.865047750795847,0.2333707855645709
2.866047767462791,0.22837399379682133
2.8670477841297357,0.22328434646010997
2.8680478007966803,0.21812165810726553
2.8690478174636245,0.21290572541943725
2.870047834130569,0.2076563272061037
2.8710478507975137,0.20239280347815286
2.872047867464458,0.19712734727916892
2.8730478841314024,0.1918661872071303
2.874047900798347,0.1866153520072308
2.875047917465291,0.18138085255298003
2.876047934132236,0.17616868184621265
2.8770479507991804,0.1709848150170835
2.8780479674661246,0.16583520932407744
2.879047984133069,0.16072580415399454
2.8800480008000138,0.1556625210219603
2.881048017466958,0.1506509770249621
2.8820480341339025,0.14569188790381976
2.883048050800847,0.14078186204067808
2.8840480674677913,0.13591736376800675
2.885048084134736,0.13109483954659687
2.88604810080168,0.12631071796556834
2.8870481174686247,0.12156140974235691
2.8880481341355693,0.11684330772272399
2.8890481508025134,0.11215278688075074
2.890048167469458,0.10748620431884776
2.8910481841364026,0.1028402111195027
2.892048200803347,0.0982167885566043
2.8930482174702914,0.09362239619357704
2.894048234137236,0.08906361558398053
2.89504825080418,0.08454701040969127
2.8960482674711248,0.08007912648090999
2.8970482841380694,0.0756664917361583
2.8980483008050135,0.07131561624228683
2.899048317471958,0.0670329921944621
2.9000483341389027,0.06282509391617647
2.901048350805847,0.05869730431122098
2.9020483674727915,0.0546364620588012
2.903048384139736,0.050613751402308865
2.9040484008066803,0.04659984833849453
2.905048417473625,0.04256541086462822
2.9060484341405695,0.03848105428459043
2.9070484508075136,0.03431732172636123
2.908048467474458,0.0300447312624949
2.909048484141403,0.025633783093866845
2.910048500808347,0.021054959549679817
2.9110485174752916,0.01628158965309396
2.9120485341422357,0.01134577384258977
2.9130485508091803,0.006332582809850983
2.914048567476125,0.0013288790532845311
2.915048584143069,-0.003578473290115446
2.9160486008100137,-0.008302608444760981
2.9170486174769583,-0.012756658996473023
2.9180486341439025,-0.016853755892478426
2.919048650810847,-0.02050702844141397
2.9200486674777917,-0.023629604313323588
2.921048684144736,-0.02614026441759371
2.9220487008116804,-0.02805660962932218
2.923048717478625,-0.029480304052377504
2.924048734145569,-0.030515689462620475
2.925048750812514,-0.031267105997320514
2.9260487674794584,-0.03183889215515179
2.9270487841464026,-0.03233538479620074
2.928048800813347,-0.03286091914195753
2.9290488174802918,-0.033519828775324605
2.930048834147236,-0.03441644564060805
2.9310488508141805,-0.03564996493896858
2.932048867481125,-0.0372292739178052
2.9330488841480693,-0.03908613482309907
2.934048900815014,-0.04114983034639103
2.935048917481958,-0.043349641540633366
2.9360489341489027,-0.04561484782018487
2.9370489508158473,-0.04787472696081343
2.9380489674827914,-0.05005855509969201
2.939048984149736,-0.05209560673540479
2.9400490008166806,-0.05391515472794235
2.941049017483625,-0.05545017035678304
2.9420490341505694,-0.05669910562057942
2.943049050817514,-0.05771655406898596
2.944049067484458,-0.058558925962725966
2.9450490841514028,-0.059282629923931816
2.9460491008183474,-0.05994407293614426
2.9470491174852915,-0.06059966034430979
2.948049134152236,-0.06130579585478523
2.9490491508191807,-0.06211888153533471
2.950049167486125,-0.0630953178151302
2.9510491841530695,-0.06428847757448394
2.952049200820014,-0.0656978398981016
2.9530492174869583,-0.06727649451308876
2.954049234153903,-0.06897601507234254
2.9550492508208475,-0.07074797359016771
2.9560492674877916,-0.07254394044227737
2.9570492841547362,-0.07431548436579254
2.958049300821681,-0.07601417245924258
2.959049317488625,-0.07759157018256348
2.9600493341555696,-0.07899924135710024
2.9610493508225137,-0.08019097352610151
2.9620493674894584,-0.08116043951553177
2.963049384156403,-0.0819357782197193
2.964049400823347,-0.08254626116198648
2.9650494174902917,-0.08302115822706282
2.9660494341572363,-0.08338973766108623
2.9670494508241805,-0.08368126607160169
2.968049467491125,-0.08392500842756308
2.9690494841580697,-0.08415022805933206
2.970049500825014,-0.08438618665867854
2.9710495174919584,-0.08466094397715489
2.972049534158903,-0.08498090662362416
2.973049550825847,-0.08533369617192606
2.974049567492792,-0.08570630951070125
2.9750495841597364,-0.08608574188999758
2.9760496008266806,-0.08645898692127174
2.977049617493625,-0.08681303657738795
2.97804963416057,-0.08713488119261902
2.979049650827514,-0.08741150946264462
2.9800496674944585,-0.08762990844455332
2.981049684161403,-0.08777813145734607
2.9820497008283473,-0.08786361684031102
2.983049717495292,-0.08791068597899189
2.9840497341622365,-0.08794422312911646
2.9850497508291807,-0.0879891109078203
2.9860497674961253,-0.08807023029364723
