Time,Amplitude
0.0,1.1175113664894012
0.0010000166669444492,1.111392620928524
0.0020000333338888983,1.0964267003707653
0.0030000500008333475,1.0727662816482852
0.004000066667777797,1.0410439857443146
0.005000083334722245,1.0019710973987255
0.006000100001666695,0.9562904033656989
0.0070001166686111446,0.9047761924137252
0.008000133335555593,0.8482342553256028
0.009000150002500042,0.7875018848984389
0.01000016666944449,0.7234478759436492
0.011000183336388941,0.6569482826070691
0.01200020000333339,0.5888132529041037
0.013000216670277839,0.5198599749791416
0.014000233337222289,0.4509371389907992
0.015000250004166738,0.38291849924185334
0.016000266671111187,0.3164933096343346
0.017000283338055637,0.25208595434858044
0.018000300005000084,0.19006295071574703
0.019000316671944534,0.13074580409887007
0.02000033333888898,0.07441100789286298
0.021000350005833432,0.021304187696344647
0.022000366672777882,-0.028316954596107696
0.02300038333972233,-0.0742253279435074
0.02400040000666678,-0.11623885327260294
0.02500041667361123,-0.15422046347826454
0.026000433340555677,-0.18807810342348347
0.027000450007500128,-0.2177647299393725
0.028000466674444578,-0.243278311825166
0.029000483341389025,-0.26466182984821923
0.030000500008333476,-0.2820032767440094
0.031000516675277923,-0.29543420401593457
0.03200053334222237,-0.30512528331562
0.033000550009166824,-0.31129070528526215
0.034000566676111274,-0.3141896725350434
0.03500058334305572,-0.31412639964326833
0.03600060001000017,-0.3113595873912397
0.03700061667694462,-0.30593123272875006
0.03800063334388907,-0.2981690972653994
0.03900065001083352,-0.28840888057584113
0.04000066667777796,-0.27696339021906263
0.04100068334472241,-0.2641312807087878
0.042000700011666864,-0.250223905447771
0.043000716678611314,-0.23553878517844998
0.044000733345555765,-0.22035054862951908
0.045000750012500215,-0.2049109325140066
0.04600076667944466,-0.18944878152927494
0.04700078334638911,-0.1741700483570204
0.04800080001333356,-0.15925779366327322
0.04900081668027801,-0.1448721860983976
0.05000083334722246,-0.13115050229709166
0.051000850014166904,-0.11820364253101638
0.052000866681111355,-0.10610536045693159
0.053000883348055805,-0.0949028729671073
0.054000900015000255,-0.08462050493664297
0.055000916681944706,-0.07525968922497245
0.056000933348889156,-0.06679896667586338
0.0570009500158336,-0.05919398611741717
0.05800096668277805,-0.05237750436206948
0.0590009833497225,-0.0462593862065896
0.06000100001666695,-0.040731776100730886
0.0610010166836114,-0.035758064189231026
0.062001033350555845,-0.03130097234945539
0.0630010500175003,-0.027308389394927305
0.06400106668444475,-0.023730363462952816
0.0650010833513892,-0.02051910201556694
0.06600110001833365,-0.017628971839533936
0.0670011166852781,-0.015016499046346703
0.06800113335222255,-0.012640369072227653
0.069001150019167,-0.010461426678127893
0.07000116668611144,-0.008442675949727724
0.07100118335305589,-0.006550448841476435
0.07200120002000034,-0.004758060423863924
0.07300121668694479,-0.0030422296332395455
0.07400123335388924,-0.0013818347320788023
0.07500125002083369,0.0002420866924139533
0.07600126668777814,0.0018463377283051722
0.07700128335472259,0.003445562138932396
0.07800130002166704,0.005052244362904033
0.07900131668861149,0.006676709514099464
0.08000133335555593,0.008327123381669053
0.08100135002250038,0.01001024517036756
0.08200136668944483,0.011733796119043013
0.08300138335638928,0.013504147085344975
0.08400140002333373,0.015325509603543593
0.08500141669027818,0.017199935883179997
0.08600143335722263,0.019127318809066124
0.08700145002416708,0.021105391941284662
0.08800146669111153,0.02312972951518973
0.08900148335805598,0.025193746441405918
0.09000150002500043,0.027288698305829404
0.09100151669194487,0.029407780506846296
0.09200153335888932,0.031576802933280856
0.09300155002583377,0.03384976663635218
0.09400156669277822,0.03625608484747568
0.09500158335972267,0.03882437938225399
0.09600160002666712,0.041583131455522775
0.09700161669361157,0.044560681681350495
0.09800163336055602,0.047785230073038434
0.09900165002750047,0.05128483604312082
0.10000166669444492,0.05508741840336455
0.10100168336138937,0.05920674942404974
0.10200170002833381,0.06359784554161087
0.10300171669527826,0.06820024963298929
0.10400173336222271,0.07295336388653166
0.10500175002916716,0.07779644988981774
0.10600176669611161,0.08266862862965971
0.10700178336305606,0.08750888049210301
0.10800180003000051,0.0922560452624256
0.10900181669694496,0.09684882212513868
0.11000183336388941,0.1012257696639857
0.11100185003083386,0.10534737885055812
0.11200186669777831,0.10926677393045
0.11300188336472275,0.11306130879549141
0.1140019000316672,0.11680819684102746
0.11500191669861165,0.12058451086163646
0.1160019333655561,0.12446718305112922
0.11700195003250055,0.1285330050025497
0.118001966699445,0.13285862770817425
0.11900198336638945,0.13752056155951273
0.1200020000333339,0.14259517634730698
0.12100201670027835,0.14813468367736302
0.1220020333672228,0.15408975184910612
0.12300205003416724,0.16038415162364197
0.12400206670111169,0.16694151301331842
0.12500208336805615,0.17368532542971654
0.1260021000350006,0.1805389376836497
0.12700211670194506,0.18742555798516464
0.1280021333688895,0.19426825394354053
0.12900215003583393,0.20098995256728983
0.1300021667027784,0.20751344026415722
0.13100218336972283,0.21377886180721642
0.1320022000366673,0.2198074210481263
0.13300221670361173,0.22563492555200418
0.1340022333705562,0.23129192193170503
0.13500225003750063,0.2368090344139034
0.1360022667044451,0.24221696483909405
0.13700228337138953,0.2475464926615905
0.138002300038334,0.2528284749495262
0.13900231670527843,0.2580938463848542
0.14000233337222287,0.2633736192633472
0.14100235003916733,0.2686921229041843
0.14200236670611177,0.27404496263183686
0.14300238337305624,0.2794201529312711
0.14400240004000067,0.2848057858345123
0.14500241670694514,0.2901900309874053
0.14600243337388957,0.2955611356496151
0.14700245004083404,0.3009074246946256
0.14800246670777847,0.30621730060974034
0.14900248337472294,0.311479243496083
0.15000250004166737,0.3166818110685964
0.1510025167086118,0.321817634581119
0.15200253337555628,0.3268965232795236
0.1530025500425007,0.33193293751891056
0.15400256670944518,0.33694141531695637
0.1550025833763896,0.3419365723051577
0.15600260004333408,0.3469331017288304
0.15700261671027851,0.3519457744471099
0.15800263337722298,0.3569894389329514
0.15900265004416742,0.3620790212731294
0.16000266671111185,0.36722952516823826
0.16100268337805632,0.37244426599512775
0.16200270004500075,0.3776760576081119
0.16300271671194522,0.3828642031789645
0.16400273337888965,0.38794808331824054
0.16500275004583412,0.3928671562503144
0.16600276671277855,0.3975609578133806
0.16700278337972302,0.4019691014594526
0.16800280004666746,0.40603127825436364
0.16900281671361192,0.409687256877767
0.17000283338055636,0.4128768836231352
0.1710028500475008,0.4155582669787884
0.17200286671444526,0.4177681174970551
0.1730028833813897,0.4195644142305078
0.17400290004833416,0.42100521417152736
0.1750029167152786,0.4221486519263131
0.17600293338222306,0.4230529397148843
0.1770029500491675,0.42377636737108026
0.17800296671611196,0.42437730234255944
0.1790029833830564,0.42491418969079975
0.18000300005000086,0.42544555209109897
0.1810030167169453,0.42601388402763984
0.18200303338388973,0.42659189559526767
0.1830030500508342,0.42712867580341973
0.18400306671777863,0.4275521238111891
0.1850030833847231,0.4278185410885882
0.18600310005166754,0.4278893853972196
0.187003116718612,0.4277261013722823
0.18800313338555644,0.42729012052256893
0.1890031500525009,0.42654286123046803
0.19000316671944534,0.42544572875196235
0.1910031833863898,0.4239723784413151
0.19200320005333424,0.4221498868791823
0.19300321672027868,0.42001986757249604
0.19400323338722314,0.4176239212115501
0.19500325005416758,0.4150036353602332
0.19600326672111204,0.41220058445602875
0.19700328338805648,0.4092563298100154
0.19800330005500094,0.4062124196068665
0.19900331672194538,0.4031103889048506
0.20000333338888984,0.39999175963583067
0.20100335005583428,0.39688950322553007
0.20200336672277874,0.3937992249075832
0.20300338338972318,0.39070630953030877
0.20400340005666762,0.3875961289573596
0.20500341672361208,0.38445404192598487
0.20600343339055652,0.381265394047028
0.20700345005750098,0.3780155178049268
0.20800346672444542,0.3746897325577151
0.20900348339138988,0.37127334453702104
0.21000350005833432,0.3677516468480677
0.21100351672527878,0.36411102212952806
0.21200353339222322,0.3603426880080052
0.21300355005916768,0.3564391810154616
0.21400356672611212,0.3523930245954124
0.21500358339305656,0.34819672906496707
0.21600360006000102,0.3438427916148307
0.21700361672694546,0.3393236963093026
0.21800363339388992,0.33463191408627746
0.21900365006083436,0.32975990275724526
0.22000366672777882,0.32470010700728985
0.22100368339472326,0.31944938592175587
0.22200370006166772,0.3140241401371522
0.22300371672861216,0.30844615401437553
0.22400373339555663,0.3027371989639733
0.22500375006250106,0.29691903327008695
0.2260037667294455,0.2910134020904536
0.22700378339638996,0.28504203745640494
0.2280038000633344,0.2790266582728678
0.22900381673027886,0.2729889703183638
0.2300038333972233,0.2669506662450094
0.23100385006416777,0.26093180136068
0.2320038667311122,0.2549452118798579
0.23300388339805667,0.2490017231943428
0.2340039000650011,0.24311214749538665
0.23500391673194554,0.23728728384783612
0.23600393339889,0.231537918190133
0.23700395006583444,0.22587482333431383
0.2380039667327789,0.22030875896601
0.23900398339972334,0.2148504716444483
0.2400040000666678,0.20951069480245033
0.24100401673361224,0.20429400537591827
0.2420040334005567,0.1991775884272169
0.24300405006750114,0.19413099163404665
0.2440040667344456,0.18912374922758668
0.24500408340139004,0.18412538231261094
0.24600410006833448,0.17910539886748855
0.24700411673527894,0.17403329374418303
0.24800413340222338,0.16887854866825341
0.24900415006916785,0.16361063223885325
0.2500041667361123,0.1581989999287314
0.25100418340305675,0.15262274595340097
0.2520042000700012,0.14690416073101756
0.2530042167369456,0.14107760825387464
0.2540042334038901,0.13517743995898143
0.25500425007083455,0.12923799415694276
0.256004266737779,0.12329359603195805
0.2570042834047234,0.11737855764182159
0.25800430007166786,0.11152717791792312
0.25900431673861235,0.10577374266524689
0.2600043334055568,0.10015252456237211
0.2610043500725012,0.09469381151461259
0.26200436673944566,0.08941001768882342
0.26300438340639015,0.08430852564607207
0.2640044000733346,0.07939670455542618
0.265004416740279,0.07467816468643614
0.26600443340722346,0.0701524790420013
0.2670044500741679,0.06582208981511793
0.2680044667411124,0.06168944796894652
0.2690044834080568,0.057757001223048485
0.27000450007500126,0.05402719405338686
0.2710045167419457,0.0504993869433005
0.2720045334088902,0.04715902024743576
0.27300455007583463,0.043987603155768086
0.27400456674277907,0.04096664138287484
0.2750045834097235,0.038077637399734764
0.276004600076668,0.03530209043372782
0.27700461674361243,0.03262149646863574
0.27800463341055687,0.030017348244641456
0.2790046500775013,0.027471135258329116
0.28000466674444574,0.0249643437626847
0.28100468341139023,0.02248213723931337
0.28200470007833467,0.02002637720351353
0.2830047167452791,0.017603656868507688
0.28400473341222354,0.015220566514219479
0.28500475007916803,0.012883693176974267
0.28600476674611247,0.010599620649498463
0.2870047834130569,0.008374929480920095
0.28800480008000134,0.006216196976768462
0.2890048167469458,0.004129997198974647
0.2900048334138903,0.002122900965870446
0.2910048500808347,0.00019994129483490164
0.29200486674777915,-0.0016408470789435487
0.2930048834147236,-0.003403424706237268
0.2940049000816681,-0.00509175552583551
0.2950049167486125,-0.006709806720126311
0.29600493341555695,-0.008261548715095983
0.2970049500825014,-0.009750955180329732
0.2980049667494459,-0.011182003029011262
0.2990049834163903,-0.012558672417922778
0.30000500008333475,-0.013884946747445262
0.3010050167502792,-0.015164413951254214
0.3020050334172236,-0.01639883547490888
0.3030050500841681,-0.017589449031120967
0.30400506675111255,-0.018737495320348754
0.305005083418057,-0.019844218286649187
0.3060051000850014,-0.020910865117677584
0.3070051167519459,-0.02193868624468818
0.30800513341889035,-0.022928935342533506
0.3090051500858348,-0.023882869329664973
0.3100051667527792,-0.02480174836813224
0.31100518341972366,-0.0256872514331293
0.31200520008666816,-0.026542972240951576
0.3130052167536126,-0.02737305699769338
0.31400523342055703,-0.028181655201272266
0.31500525008750146,-0.028972919593204388
0.31600526675444596,-0.029751006158604456
0.3170052834213904,-0.030520074126185695
0.31800530008833483,-0.03128428596826004
0.31900531675527927,-0.03204780740073792
0.3200053334222237,-0.03281480738312848
0.3210053500891682,-0.03358675809596531
0.32200536675611263,-0.03435265941536617
0.32300538342305707,-0.03509791370023659
0.3240054000900015,-0.03580792620681602
0.325005416756946,-0.036468105434942465
0.32600543342389043,-0.03706386312805231
0.32700545009083487,-0.03758061427318102
0.3280054667577793,-0.038003777100962005
0.3290054834247238,-0.038318773085627825
0.33000550009166824,-0.038511026945009255
0.3310055167586127,-0.03857076331592303
0.3320055334255571,-0.038510473672439975
0.33300555009250155,-0.03834910734887852
0.33400556675944604,-0.03810561760099689
0.3350055834263905,-0.03779896092815205
0.3360056000933349,-0.037448097073299325
0.33700561676027935,-0.037071989022992934
0.33800563342722384,-0.03668960300738534
0.3390056500941683,-0.036319908500227926
0.3400056667611127,-0.035981878218870424
0.34100568342805715,-0.035691248281947564
0.3420057000950016,-0.0354491975081012
0.3430057167619461,-0.03525320959001606
0.3440057334288905,-0.03510073328532816
0.34500575009583495,-0.03498915654173679
0.3460057667627794,-0.03491580649700464
0.3470057834297239,-0.03487794947895777
0.3480058000966683,-0.03487279100548553
0.34900581676361275,-0.034897475784540534
0.3500058334305572,-0.0349490877141389
0.3510058500975017,-0.03502272005233154
0.3520058667644461,-0.03510436665239153
0.35300588343139055,-0.03517731659799256
0.354005900098335,-0.035224797834407046
0.35500591676527943,-0.035229977496970974
0.3560059334322239,-0.03517596191108332
0.35700595009916836,-0.035045796592206635
0.3580059667661128,-0.03482246624586681
0.35900598343305723,-0.03448889476765276
0.3600060001000017,-0.03402794524321722
0.36100601676694616,-0.033429743558939025
0.3620060334338906,-0.032718811306940994
0.36300605010083503,-0.03192973353211527
0.36400606676777947,-0.031097035832313453
0.36500608343472396,-0.030255182995450193
0.3660061001016684,-0.029438578999503653
0.36700611676861283,-0.02868156701251517
0.36800613343555727,-0.028018429392589646
0.36900615010250176,-0.027483387687895003
0.3700061667694462,-0.0271106026366628
0.37100618343639064,-0.026921488049863527
0.37200620010333507,-0.02687743996492132
0.37300621677027956,-0.026922097858770214
0.374006233437224,-0.026999037823084448
0.37500625010416844,-0.02705177513960193
0.3760062667711129,-0.027023764280123385
0.3770062834380573,-0.026858398906513266
0.3780063001050018,-0.026499011870699137
0.37900631677194624,-0.025888875214672147
0.3800063334388907,-0.024971200170486395
0.3810063501058351,-0.02370636358332361
0.3820063667727796,-0.02213646605850115
0.38300638343972404,-0.020327793229152503
0.3840064001066685,-0.01834657372487863
0.3850064167736129,-0.016258975365343716
0.38600643344055735,-0.014131105160275334
0.38700645010750184,-0.012029009309464378
0.3880064667744463,-0.010018673202765126
0.3890064834413907,-0.00816602142009512
0.39000650010833515,-0.006536917731435199
0.39100651677527964,-0.005175995900139983
0.3920065334422241,-0.004026869521689677
0.3930065501091685,-0.0030030272958921672
0.39400656677611295,-0.002017892031707103
0.3950065834430574,-0.0009848257281570424
0.3960066001100019,0.0001828704256718449
0.3970066167769463,0.0015719560506300785
0.39800663344389076,0.0032692515775050047
0.3990066501108352,0.0053616382470205465
0.4000066667777797,0.007936058109837295
0.4010066834447241,0.011058003975812167
0.40200670011166856,0.01468994265156061
0.403006716778613,0.01876351750708655
0.4040067334455575,0.02321042132209898
0.4050067501125019,0.027962407674417985
0.40600676677944636,0.03295129095180071
0.4070067834463908,0.03810894635194043
0.40800680011333523,0.043367309882467654
0.4090068167802797,0.04865837836094916
0.41000683344722416,0.05391420941488868
0.4110068501141686,0.059077870579883326
0.41200686678111303,0.0641482745368405
0.4130068834480575,0.06914305699630373
0.41400690011500196,0.07407961871688923
0.4150069167819464,0.0789750592066817
0.41600693344889084,0.08384617672323484
0.4170069501158353,0.08870946827357026
0.41800696678277977,0.09358112961417944
0.4190069834497242,0.09847705525102143
0.42000700011666864,0.10341283843952423
0.4210070167836131,0.10840377700824258
0.42200703345055757,0.11346489568915907
0.423007050117502,0.11861092646027085
0.42400706678444644,0.12385630005081456
0.4250070834513909,0.12921514593949554
0.42600710011833537,0.13470129235448802
0.4270071167852798,0.14032826627343445
0.42800713345222424,0.1461092934234465
0.4290071501191687,0.1520572982811039
0.4300071667861131,0.15818490407245528
0.4310071834530576,0.16449601002271766
0.43200720012000204,0.17095331009134457
0.4330072167869465,0.17750679758116777
0.4340072334538909,0.18410616178242303
0.4350072501208354,0.19070079073481472
0.43600726678777985,0.19723977122751585
0.4370072834547243,0.20367188879916792
0.4380073001216687,0.2099456277378815
0.43900731678861316,0.21600917108123546
0.44000733345555765,0.22181040061627735
0.4410073501225021,0.2273056367717071
0.4420073667894465,0.2324935357745895
0.44300738345639096,0.23738543494726527
0.44400740012333545,0.24199237344707428
0.4450074167902799,0.24632508918082416
0.4460074334572243,0.2503940188047921
0.44700745012416876,0.2542092977247231
0.44800746679111325,0.25778076009583145
0.4490074834580577,0.26111793882279993
0.4500075001250021,0.2642300655597797
0.45100751679194656,0.26712183629494646
0.452007533458891,0.26977771530450634
0.4530075501258355,0.2721857599681175
0.4540075667927799,0.27433696682079345
0.45500758345972436,0.27622220811502424
0.4560076001266688,0.27783297675592983
0.4570076167936133,0.2791613863012599
0.45800763346055773,0.2802001709613938
0.45900765012750216,0.2809426855993405
0.4600076667944466,0.2813829057307389
0.46100768346139104,0.2815164482765626
0.46200770012833553,0.2813445758757599
0.46300771679527997,0.2808707155348387
0.4640077334622244,0.28009891532870557
0.46500775012916884,0.279033843984897
0.46600776679611333,0.2776807908835788
0.46700778346305777,0.27604566605754677
0.4680078001300022,0.27413500019222636
0.46900781679694664,0.27195594462567274
0.4700078334638911,0.2695162713485711
0.47100785013083557,0.26682416533056436
0.47200786679778,0.26388740518620135
0.47300788346472444,0.26071407327893914
0.4740079001316689,0.2573128725342002
0.47500791679861337,0.2536931265300375
0.4760079334655578,0.2498647794971329
0.47700795013250225,0.24583839631879856
0.4780079667994467,0.24162516253097618
0.4790079834663912,0.2372368843222372
0.4800080001333356,0.23268598853378303
0.48100801680028005,0.22798563988968332
0.4820080334672245,0.223150206142986
0.4830080501341689,0.21819485620245038
0.4840080668011134,0.21313537968424667
0.48500808346805785,0.20798818685717427
0.4860081001350023,0.20277030864266238
0.4870081168019467,0.19749939661477023
0.4880081334688912,0.19219372300018664
0.48900815013583565,0.18687218067823003
0.4900081668027801,0.1815542831808485
0.4910081834697245,0.17625767651778756
0.49200820013666896,0.17098821032779798
0.49300821680361345,0.16574838075347448
0.4940082334705579,0.16049829945950325
0.4950082501375023,0.1552073540916554
0.49600826680444676,0.14987943142693624
0.49700828347139125,0.1445168792321155
0.4980083001383357,0.13912050626372807
0.4990083168052801,0.13368958226807276
0.5000083334722246,0.1282218379812136
0.501008350139169,0.12271908688045424
0.5020083668061135,0.11720983245244058
0.5030083834730579,0.11172996508540066
0.5040084001400024,0.10631385583643296
0.5050084168069469,0.10099433675240087
0.5060084334738912,0.09580270086993185
0.5070084501408357,0.09076870221541873
0.5080084668077802,0.0859205558050184
0.5090084834747246,0.08128493764465262
0.5100085001416691,0.07688698473000793
0.5110085168086135,0.07274449639645968
0.512008533475558,0.06884453108757824
0.5130085501425025,0.06516343616241708
0.5140085668094468,0.06167601667190812
0.5150085834763913,0.058355538656747925
0.5160086001433357,0.055173729147397765
0.5170086168102802,0.05210077616408344
0.5180086334772247,0.049105328716795314
0.5190086501441691,0.04615449680528873
0.5200086668111136,0.04321385141908311
0.5210086834780581,0.04025173855415062
0.5220087001450024,0.03725678950850865
0.5230087168119469,0.03422298183325364
0.5240087334788913,0.031142756682661293
0.5250087501458358,0.028007016200772252
0.5260087668127803,0.024805123521391734
0.5270087834797247,0.021524902768089493
0.5280088001466692,0.018152639054200143
0.5290088168136136,0.014673078482822585
0.530008833480558,0.011069428146820798
0.5310088501475025,0.007322282460208055
0.5320088668144469,0.003405240446781888
0.5330088834813914,-0.0007113204642501831
0.5340089001483358,-0.005035201383137924
0.5350089168152803,-0.009611748344948393
0.5360089334822248,-0.014508528630597425
0.5370089501491692,-0.01977631222213004
0.5380089668161137,-0.025449071802721216
0.5390089834830581,-0.031543982756674915
0.5400090001500025,-0.03806142316942508
0.541009016816947,-0.044992895015560176
0.5420090334838914,-0.05235354203317853
0.5430090501508359,-0.06015458202312282
0.5440090668177804,-0.06839044091405728
0.5450090834847248,-0.07703874733577579
0.5460091001516693,-0.08606033261920151
0.5470091168186136,-0.0953992307963873
0.5480091334855581,-0.10498267860051545
0.5490091501525026,-0.11472111546589814
0.550009166819447,-0.12450818352797646
0.5510091834863915,-0.13420167571758626
0.552009200153336,-0.1435448805032163
0.5530092168202804,-0.15223305200751602
0.5540092334872249,-0.159944633195684
0.5550092501541692,-0.1663412697340486
0.5560092668211137,-0.17106780999006752
0.5570092834880582,-0.17375235410270873
0.5580093001550026,-0.1743606279815048
0.5590093168219471,-0.17271611305691667
0.5600093334888915,-0.16828619036969877
0.561009350155836,-0.16060923637151323
0.5620093668227805,-0.1493699891015254
0.5630093834897248,-0.13433606004831689
0.5640094001566693,-0.11532791783205806
0.5650094168236138,-0.09221887419832372
0.5660094334905582,-0.0649350840180933
0.5670094501575027,-0.033455545287750736
0.5680094668244471,0.0021879008709156985
0.5690094834913916,0.04191057021071289
0.5700095001583361,0.08557493535904359
0.5710095168252804,0.1329927015623074
0.5720095334922249,0.18393347377461933
0.5730095501591693,0.23811747879505962
0.5740095668261138,0.2952121019946033
0.5750095834930583,0.35483188561882095
0.5760096001600027,0.4165385287878786
0.5770096168269472,0.4798408874965312
0.5780096334938916,0.5441949746141497
0.579009650160836,0.60900395988468
0.5800096668277805,0.6736181699266699
0.5810096834947249,0.7373451728134952
0.5820097001616694,0.7996463620427915
0.5830097168286139,0.8596178468657969
0.5840097334955583,0.9160944789648251
0.5850097501625028,0.9680381583516336
0.5860097668294472,1.0145378985224167
0.5870097834963917,1.0548098264578083
0.5880098001633361,1.0881971826228773
0.5890098168302805,1.1141703209671328
0.590009833497225,1.1323267089245193
0.5910098501641694,1.142384678651894
0.5920098668311139,1.1441570396090412
0.5930098834980584,1.1375730950246916
0.5940099001650028,1.122689255889431
0.5950099168319473,1.0996890466782845
0.5960099334988918,1.0688831053507133
0.5970099501658361,1.0307091833506175
0.5980099668327806,0.9857321456063335
0.599009983499725,0.9346439705306369
0.6000100001666695,0.8782637500207398
0.601010016833614,0.8175373391208377
0.6020100335005584,0.7534997203484628
0.6030100501675029,0.6868630669526158
0.6040100668344472,0.6184494802604132
0.6050100835013917,0.5491048079199439
0.6060101001683362,0.47961246621385745
0.6070101168352806,0.4106934400593635
0.6080101335022251,0.3430062830082316
0.6090101501691695,0.2771471172467921
0.610010166836114,0.21364963359593517
0.6110101835030585,0.15298440207400246
0.6120102001700028,0.09555592750842486
0.6130102168369473,0.04170509045551845
0.6140102335038918,-0.008289660598568725
0.6150102501708362,-0.05421230853312997
0.6160102668377807,-0.09590926759289664
0.6170102835047251,-0.1332893833880415
0.6180103001716696,-0.16632393289417569
0.6190103168386141,-0.1950466244523515
0.6200103335055585,-0.2195535977690599
0.621010350172503,-0.2400004829937062
0.6220103668394473,-0.25658976992833665
0.6230103835063918,-0.26933698538729817
0.6240104001733363,-0.27802358703687563
0.6250104168402807,-0.28302039609227475
0.6260104335072252,-0.2847054623757705
0.6270104501741697,-0.28343938852599654
0.6280104668411141,-0.2795653299979445
0.6290104835080585,-0.2734089950629645
0.6300105001750029,-0.2652786448087645
0.6310105168419474,-0.2554671877257243
0.6320105335088919,-0.2442612264085011
0.6330105501758363,-0.23193360605708008
0.6340105668427808,-0.2187397270699499
0.6350105835097252,-0.2049175426619572
0.6360106001766697,-0.19068755886430694
0.6370106168436142,-0.17625283452456236
0.6380106335105585,-0.161798981306645
0.639010650177503,-0.14749416369083435
0.6400106668444474,-0.13348909897376868
0.6410106835113919,-0.11991616617773948
0.6420107001783364,-0.10688553563532927
0.6430107168452808,-0.09448834662068441
0.6440107335122253,-0.0827982901565568
0.6450107501791698,-0.0718716100820573
0.6460107668461141,-0.06174710305265465
0.6470107835130586,-0.05244611854017528
0.648010800180003,-0.043972558832804994
0.6490108168469475,-0.03631287903508708
0.650010833513892,-0.02942382265033202
0.6510108501808364,-0.023167736280652936
0.6520108668477809,-0.017481386792672537
0.6530108835147252,-0.01232465162961014
0.6540109001816697,-0.007659388726300002
0.6550109168486142,-0.0034494343905533045
0.6560109335155586,0.00033939669684152616
0.6570109501825031,0.003739311482119266
0.6580109668494476,0.006780538538537833
0.659010983516392,0.009491328066377933
0.6600110001833365,0.01189795189294325
0.6610110168502809,0.014028196762216342
0.6620110335172253,0.015926708861047044
0.6630110501841698,0.017642477565685183
0.6640110668511142,0.019222518516080915
0.6650110835180587,0.020711868979206634
0.6660111001850031,0.022153587849058447
0.6670111168519476,0.023588755646655076
0.6680111335188921,0.02505647452003854
0.6690111501858365,0.02659386824427364
0.670011166852781,0.028236082221448088
0.6710111835197254,0.030013236413686438
0.6720112001866698,0.031936965483939664
0.6730112168536143,0.03401136197895951
0.6740112335205587,0.03623853582027707
0.6750112501875032,0.038618618556446854
0.6760112668544477,0.04114976336304603
0.6770112835213921,0.04382814504267489
0.6780113001883366,0.04664796002495693
0.6790113168552809,0.049601426366538255
0.6800113335222254,0.05267878375108833
0.6810113501891699,0.05586718344060679
0.6820113668561143,0.05914575723120095
0.6830113835230588,0.062489613409823605
0.6840114001900032,0.0658718802628214
0.6850114168569477,0.0692637077035641
0.6860114335238922,0.07263426727244461
0.6870114501908365,0.07595075213687862
0.688011466857781,0.07920480106511237
0.6890114835247255,0.0824162702679567
0.6900115001916699,0.08556991210960858
0.6910115168586144,0.08865515277906925
0.6920115335255588,0.09169100916126649
0.6930115501925033,0.09470646307589489
0.6940115668594478,0.09773035826469705
0.6950115835263921,0.10079139201717613
0.6960116001933366,0.10391811517059399
0.697011616860281,0.10713893210997268
0.6980116335272255,0.11048210076809348
0.69901165019417,0.11397573262549761
0.7000116668611144,0.1176477927104859
0.7010116835280589,0.12152178092151408
0.7020117001950034,0.12559734323635333
0.7030117168619477,0.1298659562374799
0.7040117335288922,0.1343189739175915
0.7050117501958366,0.13894760389488914
0.7060117668627811,0.14374290733533163
0.7070117835297256,0.14869579895263763
0.70801180019667,0.15379704700828598
0.7090118168636145,0.15903727331151463
0.7100118335305589,0.16440695321932164
0.7110118501975033,0.16989489233938052
0.7120118668644478,0.1754813449338453
0.7130118835313922,0.18114353577999015
0.7140119001983367,0.18685854062182103
0.7150119168652811,0.19260328875110286
0.7160119335322256,0.19835456300736048
0.7170119501991701,0.20408899977787867
0.7180119668661145,0.2097830889977014
0.719011983533059,0.21541317414963226
0.7200120002000034,0.22095545226423494
0.7210120168669478,0.22639184172499122
0.7220120335338923,0.23173663942449027
0.7230120502008367,0.23701520140973076
0.7240120668677812,0.24225274769614571
0.7250120835347257,0.24747435184692812
0.7260121002016701,0.2527049409730303
0.7270121168686146,0.2579692957331648
0.7280121335355589,0.2632928207829635
0.7290121502025034,0.2687111946771834
0.7300121668694479,0.27425036787084056
0.7310121835363923,0.27992584204443927
0.7320122002033368,0.2857185668181679
0.7330122168702813,0.2915976225152045
0.7340122335372257,0.29753221073304853
0.7350122502041702,0.30349166593101323
0.7360122668711145,0.30944545543022556
0.737012283538059,0.3153631794136267
0.7380123002050035,0.3212145709259711
0.7390123168719479,0.3269694958738275
0.7400123335388924,0.3325979530255784
0.7410123502058368,0.3380740542320939
0.7420123668727813,0.34339431002057996
0.7430123835397258,0.34856310226821086
0.7440124002066701,0.35358495346599883
0.7450124168736146,0.35846451896676956
0.7460124335405591,0.3632065869851632
0.7470124502075035,0.3678160785976335
0.748012466874448,0.3722980477424476
0.7490124835413924,0.3766576812196868
0.7500125002083369,0.38090029869124653
0.7510125168752814,0.3850317293636104
0.7520125335422257,0.3890600522231339
0.7530125502091702,0.39299421807520507
0.7540125668761146,0.3968433113546932
0.7550125835430591,0.400616549358281
0.7560126002100036,0.40432328224446545
0.757012616876948,0.40797299303355683
0.7580126335438925,0.4115752976076801
0.7590126502108369,0.41513994471077315
0.7600126668777814,0.41867681594858797
0.7610126835447258,0.4221914415127193
0.7620127002116702,0.42566416708510085
0.7630127168786147,0.42906659494170457
0.7640127335455592,0.4323704506626731
0.7650127502125036,0.4355475926899627
0.7660127668794481,0.4385700123273431
0.7670127835463925,0.44140983374039844
0.768012800213337,0.44403931395652596
0.7690128168802814,0.44643084286493834
0.7700128335472258,0.44855694321665973
0.7710128502141703,0.4503927514519842
0.7720128668811147,0.4519276077769019
0.7730128835480592,0.45315594009341403
0.7740129002150037,0.45407231469240006
0.7750129168819481,0.45467143072655364
0.7760129335488926,0.45494812021038206
0.777012950215837,0.45489734802020626
0.7780129668827814,0.454514211894161
0.7790129835497259,0.4537939424321953
0.7800130002166703,0.4527319030960719
0.7810130168836148,0.4513291163122815
0.7820130335505593,0.4496182253444797
0.7830130502175037,0.44763646092423565
0.7840130668844482,0.4454101687936385
0.7850130835513925,0.44298821749948913
0.786013100218337,0.4404210191453529
0.7870131168852815,0.43775894599968174
0.7880131335522259,0.4350523304958147
0.7890131502191704,0.432351465231978
0.7900131668861148,0.4297066029712839
0.7910131835530593,0.4271580209176027
0.7920132002200038,0.4246890807317585
0.7930132168869481,0.42226290099709873
0.7940132335538926,0.4198425363109204
0.7950132502208371,0.41739100143540725
0.7960132668877815,0.41487127129762963
0.797013283554726,0.41224628098954463
0.7980133002216704,0.40947892576799655
0.7990133168886149,0.4065320610547162
0.8000133335555594,0.40336850243632155
0.8010133502225038,0.39995649926584437
0.8020133668894482,0.3962957334243931
0.8030133835563926,0.3923970174175412
0.8040134002233371,0.3882710993305548
0.8050134168902816,0.3839286852397477
0.806013433557226,0.3793804412509909
0.8070134502241705,0.374636993635042
0.808013466891115,0.3697089288275456
0.8090134835580594,0.3646067934290329
0.8100135002250038,0.3593410942049223
0.8110135168919482,0.35392394140447975
0.8120135335588927,0.3483768995864277
0.8130135502258372,0.34272489545978113
0.8140135668927816,0.3369928202482756
0.8150135835597261,0.33120552534053327
0.8160136002266705,0.32538782229006313
0.817013616893615,0.31956448281526095
0.8180136335605594,0.3137602387994095
0.8190136502275038,0.30799978229067776
0.8200136668944483,0.30230776550212224
0.8210136835613928,0.29670425331245553
0.8220137002283372,0.29118287636487433
0.8230137168952817,0.285727726469835
0.8240137335622261,0.28032284304998983
0.8250137502291706,0.27495222569287836
0.826013766896115,0.2695998341509264
0.8270137835630594,0.26424958834144746
0.8280138002300039,0.25888536834664067
0.8290138168969483,0.2534910144135929
0.8300138335638928,0.24805032695427767
0.8310138502308373,0.24255012933377698
0.8320138668977817,0.23699506430596454
0.8330138835647262,0.23139619009404044
0.8340139002316705,0.22576453389870027
0.835013916898615,0.22011108308552918
0.8360139335655595,0.21444678518499807
0.8370139502325039,0.2087825478924647
0.8380139668994484,0.20312923906817376
0.8390139835663929,0.19749768673725646
0.8400140002333373,0.1918986790897309
0.8410140169002818,0.1863429454363621
0.8420140335672262,0.18084106369120886
0.8430140502341706,0.17540353143314333
0.8440140669011151,0.17004080634883112
0.8450140835680595,0.1647633062898243
0.846014100235004,0.159581409272562
0.8470141169019484,0.1545054534783699
0.8480141335688929,0.14954573725346101
0.8490141502358374,0.1447125191089345
0.8500141669027818,0.14001601772077676
0.8510141835697262,0.135463392245271
0.8520142002366707,0.13104399051039375
0.8530142169036151,0.12674064087049047
0.8540142335705596,0.12253612241624835
0.855014250237504,0.11841317440324053
0.8560142669044485,0.1143544962519273
0.857014283571393,0.11034172964226292
0.8580143002383374,0.1063532768683779
0.8590143169052818,0.10236775992979308
0.8600143335722262,0.09836382795719986
0.8610143502391707,0.09432604027784001
0.8620143669061152,0.09027394425738257
0.8630143835730596,0.08623989401485273
0.8640144002400041,0.08225625397746443
0.8650144169069485,0.07835537963987958
0.866014433573893,0.07456961756420727
0.8670144502408375,0.0709313053800047
0.8680144669077818,0.06747277178427624
0.8690144835747263,0.06422633654147375
0.8700145002416708,0.06122431048349719
0.8710145169086152,0.05849117065453191
0.8720145335755597,0.05600490575915864
0.8730145502425041,0.053726401112760676
0.8740145669094486,0.05161650662847925
0.8750145835763931,0.04963606328690306
0.8760146002433374,0.04774590313606861
0.8770146169102819,0.045906849291460036
0.8780146335772263,0.04407971593600874
0.8790146502441708,0.04222530832009399
0.8800146669111153,0.04030442276154247
0.8810146835780597,0.038285924366722415
0.8820147002450042,0.036186873643458815
0.8830147169119487,0.03404212802549537
0.884014733578893,0.03188656443910173
0.8850147502458375,0.029755050877994498
0.8860147669127819,0.027682446403338383
0.8870147835797264,0.025703601143745404
0.8880148002466709,0.02385335629527551
0.8890148169136153,0.022166544121435598
0.8900148335805598,0.020677987953180765
0.8910148502475042,0.019416179913408792
0.8920148669144486,0.018371699199491488
0.8930148835813931,0.0175210542190723
0.8940149002483375,0.01684072131263474
0.895014916915282,0.016307167888109608
0.8960149335822265,0.01589685242087543
0.8970149502491709,0.015586224453758273
0.8980149669161154,0.015351724597031874
0.8990149835830598,0.01516978452841739
0.9000150002500042,0.015016826993083725
0.9010150169169487,0.014870110901285842
0.9020150335838931,0.014711978387677538
0.9030150502508376,0.014526701892304244
0.904015066917782,0.014298589422768482
0.9050150835847265,0.014011941745400868
0.906015100251671,0.013651050693979289
0.9070151169186154,0.01320019916972949
0.9080151335855599,0.012643661141324796
0.9090151502525042,0.011965701644885834
0.9100151669194487,0.011150576783981143
0.9110151835863932,0.010188647709995176
0.9120152002533376,0.009107263796709415
0.9130152169202821,0.007947610204991597
0.9140152335872266,0.006750887328138716
0.915015250254171,0.005558286626894944
0.9160152669211155,0.0044109906294524295
0.9170152835880598,0.0033501729314505072
0.9180153002550043,0.002416998195976492
0.9190153169219488,0.0016526221535649857
0.9200153335888932,0.0010981916021982805
0.9210153502558377,0.0007848744867012271
0.9220153669227821,0.0006832184004400897
0.9230153835897266,0.0007409823298026507
0.9240154002566711,0.000905875396988976
0.9250154169236154,0.0011255977916466977
0.9260154335905599,0.0013478407708708271
0.9270154502575044,0.001520286659204275
0.9280154669244488,0.0015906088486371808
0.9290154835913933,0.0015100652699581538
0.9300155002583377,0.0012329636873688967
0.9310155169252822,0.0007199257274907414
0.9320155335922267,7.630616288645774e-06
0.933015550259171,-0.0008384259409236917
0.9340155669261155,-0.001752600776585806
0.9350155835930599,-0.0026691563722361575
0.9360156002600044,-0.0035222608585116274
0.9370156169269489,-0.0042459880151483505
0.9380156335938933,-0.004774317270980414
0.9390156502608378,-0.0050411337039411135
0.9400156669277822,-0.004980228041062252
0.9410156835947266,-0.00454036936078827
0.9420157002616711,-0.003762722450714585
0.9430157169286155,-0.002723419926203754
0.94401573359556,-0.001498566751095433
0.9450157502625045,-0.000164173538327669
0.9460157669294489,0.0012038434500626551
0.9470157835963934,0.002529662302940156
0.9480158002633378,0.003737555460070532
0.9490158169302823,0.004751889712120928
0.9500158335972267,0.005497126200659639
0.9510158502641711,0.005912670590510937
0.9520158669311156,0.00602957286443003
0.95301588359806,0.005913833198023841
0.9540159002650045,0.0056316143087847235
0.955015916931949,0.005249173265105987
0.9560159335988934,0.004832861486282498
0.9570159502658379,0.004449124742510593
0.9580159669327823,0.004164503154887651
0.9590159835997267,0.004045631195412538
0.9600160002666712,0.004159237686985063
0.9610160169336156,0.004559495449924244
0.9620160336005601,0.005222319024814372
0.9630160502675046,0.006093757201067194
0.964016066934449,0.007119892859909015
0.9650160836013935,0.008246903233467473
0.9660161002683378,0.009421059904771708
0.9670161169352823,0.010588728807751812
0.9680161336022268,0.011696370227239539
0.9690161502691712,0.012690538798967798
0.9700161669361157,0.013517883509570705
0.9710161836030601,0.014137719462014187
0.9720162002700046,0.01458768603169737
0.9730162169369491,0.01493555928058003
0.9740162336038934,0.015249271723181374
0.9750162502708379,0.015596850224921481
0.9760162669377824,0.016046416002122144
0.9770162836047268,0.016666184622006443
0.9780163002716713,0.017524466002698618
0.9790163169386157,0.018689664413224238
0.9800163336055602,0.020230278473510208
0.9810163502725047,0.022199649676337294
0.982016366939449,0.024555864949137626
0.9830163836063935,0.027220331100010972
0.9840164002733379,0.030114471184288165
0.9850164169402824,0.0331598026082023
0.9860164336072269,0.036277937128887154
0.9870164502741713,0.03939058085437813
0.9880164669411158,0.042419534243611536
0.9890164836080603,0.045286692106425504
0.9900165002750047,0.047914043603559026
0.9910165169419491,0.05023955353079535
0.9920165336088935,0.05230103224171441
0.993016550275838,0.05417502269169675
0.9940165669427825,0.05595987292568173
0.9950165836097269,0.057765360126332065
0.9960166002766714,0.05965784921675057
0.9970166169436158,0.0617027562347283
0.9980166336105603,0.06396542043845355
0.9990166502775047,0.06651110430651157
1.0000166669444492,0.06940499353788482
1.0010166836113936,0.07270251796685623
1.002016700278338,0.0763979506175474
1.0030167169452826,0.08046171034570637
1.004016733612227,0.08486406137978614
1.0050167502791714,0.08957518834603241
1.0060167669461157,0.09456519857278811
1.0070167836130604,0.09980412260050242
1.0080168002800047,0.10526191419001645
1.0090168169469491,0.11090845032257347
1.0100168336138937,0.11671353119980907
1.011016850280838,0.1226456522376084
1.0120168669477825,0.12866544641779568
1.013016883614727,0.1347304281611488
1.0140169002816715,0.14079802811462563
1.0150169169486158,0.14682560014558568
1.0160169336155604,0.15277042134178012
1.0170169502825048,0.15858969201136244
1.0180169669494492,0.16424053568287825
1.0190169836163936,0.16967999910527506
1.0200170002833382,0.17486505224789228
1.0210170169502826,0.1797630566549988
1.022017033617227,0.184407978744895
1.0230170502841716,0.18885987215929506
1.024017066951116,0.19317877549920506
1.0250170836180603,0.1974246505860311
1.026017100285005,0.20165738246157616
1.0270171169519493,0.20593677938803742
1.0280171336188937,0.2103225728480135
1.0290171502858383,0.2148744175444946
1.0300171669527827,0.21965189140087354
1.031017183619727,0.2247012530158892
1.0320172002866714,0.22998393525693767
1.033017216953616,0.23542789810188472
1.0340172336205604,0.24096094390031814
1.0350172502875048,0.24651079822221852
1.0360172669544494,0.25200510985796776
1.0370172836213938,0.2573714508183406
1.0380173002883382,0.2625373163345132
1.0390173169552828,0.26743012485805395
1.0400173336222271,0.2719772180609328
1.0410173502891715,0.27611594336951684
1.0420173669561161,0.2798484003982006
1.0430173836230605,0.2832022682295314
1.044017400290005,0.28620521287144846
1.0450174169569493,0.28888482355228406
1.0460174336238939,0.29126861272077104
1.0470174502908383,0.2933840160460365
1.0480174669577826,0.29525839241760654
1.0490174836247272,0.29691902394540265
1.0500175002916716,0.2983931159597449
1.051017516958616,0.2997015565151316
1.0520175336255606,0.3008248428130347
1.053017550292505,0.30172737234378016
1.0540175669594494,0.3023734250229141
1.055017583626394,0.3027272039863776
1.0560176002933384,0.30275283559051064
1.0570176169602827,0.30241436941204963
1.0580176336272271,0.30167577824812725
1.0590176502941717,0.30050168254362186
1.060017666961116,0.29888133676441225
1.0610176836280605,0.2968181242083745
1.062017700295005,0.29434468913475775
1.0630177169619495,0.29150709160955607
1.0640177336288938,0.2883511118038146
1.0650177502958385,0.2849222141544411
1.0660177669627828,0.28126554736420056
1.0670177836297272,0.27742594440172175
1.0680178002966716,0.27344792250148986
1.0690178169636162,0.26937568316385413
1.0700178336305606,0.2652531121550198
1.071017850297505,0.2611171778736489
1.0720178669644496,0.2569614832805957
1.073017883631394,0.2527620582451031
1.0740179002983383,0.24849457074149334
1.075017916965283,0.24413437300995375
1.0760179336322273,0.2396565015565269
1.0770179502991717,0.2350356771531208
1.0780179669661163,0.2302463048374982
1.0790179836330607,0.22526247391328727
1.080018000300005,0.22005795794997163
1.0810180169669494,0.2146126984591583
1.082018033633894,0.2089488010877978
1.0830180503008384,0.2031051576690354
1.0840180669677828,0.1971203911717107
1.0850180836347274,0.19103280883052853
1.0860181003016718,0.18488040214604862
1.0870181169686162,0.17870084688469645
1.0880181336355608,0.17253150307875184
1.0890181503025052,0.16640941502636036
1.0900181669694495,0.1603713112915229
1.0910181836363941,0.15445099269916476
1.0920182003033385,0.14866475019378442
1.093018216970283,0.1430216071632885
1.0940182336372273,0.1375302517455186
1.0950182503041719,0.13219905634418094
1.0960182669711163,0.12703607762883706
1.0970182836380606,0.12204905653491387
1.0980183003050052,0.11724541826369379
1.0990183169719496,0.11263227228232343
1.100018333638894,0.10821641232380554
1.1010183503058386,0.10400295040844487
1.102018366972783,0.09998764844324798
1.1030183836397274,0.09616227674589638
1.104018400306672,0.0925182617249823
1.1050184169736164,0.08904671152837645
1.1060184336405607,0.08573841856980569
1.1070184503075051,0.08258385952886102
1.1080184669744497,0.07957762004046554
1.109018483641394,0.07672069149583217
1.1100185003083385,0.07398111121905859
1.111018516975283,0.071323150713737
1.1120185336422275,0.06871232027334043
1.1130185503091719,0.06611439527505551
1.1140185669761165,0.06349474769347037
1.1150185836430608,0.060818344127107724
1.1160186003100052,0.05804974579842071
1.1170186169769498,0.05515310855379712
1.1180186336438942,0.05209218286355475
1.1190186503108386,0.04883031382194655
1.120018666977783,0.04533044114715488
1.1210186836447276,0.04156040211573897
1.122018700311672,0.037523033860742655
1.1230187169786163,0.03323526744485445
1.124018733645561,0.02871367223997437
1.1250187503125053,0.023974412241938258
1.1260187669794497,0.019033246070510663
1.1270187836463943,0.0139055269693925
1.1280188003133387,0.0086062028062131
1.129018816980283,0.00314981607253862
1.1300188336472277,-0.0024494961161369575
1.131018850314172,-0.008186535086252441
1.1320188669811164,-0.014113748638519377
1.1330188836480608,-0.02030753172268392
1.1340189003150054,-0.02684475725122109
1.1350189169819498,-0.03380270351266722
1.1360189336488942,-0.041262789284056245
1.1370189503158388,-0.04926441574707628
1.1380189669827832,-0.05769872813405738
1.1390189836497275,-0.0664364983200296
1.1400190003166721,-0.07534589376349936
1.1410190169836165,-0.08428724753904294
1.142019033650561,-0.0930830386170941
1.1430190503175053,-0.10153858237822294
1.1440190669844499,-0.10945654385761364
1.1450190836513943,-0.1166369836739111
1.1460191003183386,-0.12287735802923509
1.1470191169852832,-0.12797251870916748
1.1480191336522276,-0.13171471308276347
1.149019150319172,-0.1338935841025423
1.1500191669861166,-0.13429617030449406
1.151019183653061,-0.13270680908663565
1.1520192003200054,-0.1289065784410667
1.15301921698695,-0.12267368025894591
1.1540192336538944,-0.11378371113820328
1.1550192503208387,-0.1020096632602342
1.1560192669877831,-0.08712192438991079
1.1570192836547277,-0.06888827787556102
1.158019300321672,-0.047073902648996066
1.1590193169886165,-0.02144137323068014
1.160019333655561,0.008138189758294029
1.1610193503225055,0.04167816010323673
1.1620193669894499,0.07919722272049873
1.1630193836563945,0.12065374262920561
1.1640194003233388,0.16594716317002758
1.1650194169902832,0.21491801063475668
1.1660194336572278,0.267347894266227
1.1670194503241722,0.3229595062584012
1.1680194669911166,0.38141662175627766
1.169019483658061,0.4423240988559894
1.1700195003250056,0.5052278786046996
1.17101951699195,0.5696107517641464
1.1720195336588943,0.6348676519556173
1.173019550325839,0.7003224890807015
1.1740195669927833,0.7652402151417076
1.1750195836597277,0.828826865092085
1.1760196003266723,0.8902295568363109
1.1770196169936167,0.9485364912300006
1.178019633660561,1.0027769520798007
1.1790196503275057,1.051921306143491
1.18001966699445,1.0948810031298888
1.1810196836613944,1.130515748291775
1.1820197003283388,1.1576389697487688
1.1830197169952834,1.1758996809460773
1.1840197336622278,1.185482660440607
1.1850197503291722,1.1866170043521207
1.1860197669961168,1.179575912132387
1.1870197836630612,1.1646766865651794
1.1880198003300055,1.1422807337662901
1.1890198169969501,1.1127935631835035
1.1900198336638945,1.076664787596635
1.191019850330839,1.0343836232061692
1.1920198669977835,0.9864523329015136
1.1930198836647279,0.9334041799605957
1.1940199003316723,0.8758164848020867
1.1950199169986166,0.814310671176618
1.1960199336655613,0.749552266166882
1.1970199503325056,0.6822509001875238
1.19801996699945,0.613160306985256
1.1990199836663946,0.5430783236387381
1.200020000333339,0.4728468905587019
1.2010200170002834,0.40335319341935094
1.202020033667228,0.3355364399475492
1.2030200503341724,0.27038330887193834
1.2040200670011167,0.20889176226351147
1.2050200836680613,0.15113992666117684
1.2060201003350057,0.09706921274027852
1.20702011700195,0.04682766416183611
1.2080201336688945,0.0005354701308030122
1.209020150335839,-0.041715034604023406
1.2100201670027835,-0.07985936974991924
1.2110201836697279,-0.11386261311205753
1.2120202003366725,-0.14372956719198368
1.2130202170036168,-0.1694979397284452
1.2140202336705612,-0.19123331150362566
1.2150202503375058,-0.20902911775584265
1.2160202670044502,-0.22300664817950927
1.2170202836713946,-0.2333150469251658
1.218020300338339,-0.24013131259945397
1.2190203170052836,-0.2436602982651366
1.220020333672228,-0.2441347114410846
1.2210203503391723,-0.241811027480935
1.222020367006117,-0.2369449664600527
1.2230203836730613,-0.2298078777827145
1.2240204003400057,-0.22069891935595168
1.2250204170069503,-0.20994510354290025
1.2260204336738947,-0.19790129716281862
1.227020450340839,-0.18494968133297285
1.2280204670077837,-0.17135343326635383
1.229020483674728,-0.15725635852174327
1.2300205003416724,-0.14283045182980425
1.2310205170086168,-0.12823667817700615
1.2320205336755614,-0.11366096102657401
1.2330205503425058,-0.09929023266016146
1.2340205670094502,-0.08529450075720159
1.2350205836763948,-0.0718267792884343
1.2360206003433392,-0.05902308851593058
1.2370206170102835,-0.047002454993069306
1.2380206336772281,-0.03586691156455933
1.2390206503441725,-0.025701497366418455
1.240020667011117,-0.016574257825993394
1.2410206836780615,-0.008526966583966683
1.242020700345006,-0.0015188268640814956
1.2430207170119503,0.004536211458199445
1.2440207336788947,0.009741302977995844
1.2450207503458393,0.0142165959991136
1.2460207670127836,0.01809923253403516
1.247020783679728,0.02154334830392713
1.2480208003466726,0.024720072738633855
1.249020817013617,0.027817528976683645
1.2500208336805614,0.031036577923885426
1.251020850347506,0.03443615307324801
1.2520208670144504,0.03796577688040259
1.2530208836813947,0.041571789993567254
1.2540209003483394,0.04519871045704394
1.2550209170152837,0.048789398864646116
1.2560209336822281,0.052285058359694034
1.2570209503491725,0.05562523463501902
1.258020967016117,0.058747815932958775
1.2590209836830615,0.06158903304536244
1.2600210003500059,0.06408345931358618
1.2610210170169505,0.0661772054887001
1.2620210336838948,0.0679088805228397
1.2630210503508392,0.06935635595731965
1.2640210670177838,0.07059601299026227
1.2650210836847282,0.07170257536930028
1.2660211003516726,0.07274910939157403
1.2670211170186172,0.07380702390373418
1.2680211336855616,0.0749460703019385
1.269021150352506,0.0762343425318558
1.2700211670194503,0.07773827708866182
1.271021183686395,0.07951435471726481
1.2720212003533393,0.08155789984375168
1.2730212170202837,0.08383661177938234
1.2740212336872283,0.08631642416884913
1.2750212503541727,0.0889616132063551
1.276021267021117,0.09173479763561025
1.2770212836880617,0.09461005600010917
1.278021300355006,0.09756894391688982
1.2790213170219504,0.10058258168344299
1.2800213336888948,0.10362195391602738
1.2810213503558394,0.10666356928257963
1.2820213670227838,0.10972454708904751
1.2830213836897282,0.11283973210804076
1.2840214003566728,0.11604391400079682
1.2850214170236172,0.119371751393423
1.2860214336905615,0.1228577718769045
1.2870214503575061,0.12653637200709622
1.2880214670244505,0.13044181730473067
1.289021483691395,0.1346082422554103
1.2900215003583395,0.13906965030961513
1.291021517025284,0.14385094701279216
1.2920215336922283,0.1489119952499564
1.2930215503591727,0.15418395674511703
1.2940215670261173,0.1595977382675795
1.2950215836930616,0.16508411555151828
1.296021600360006,0.17057373329598727
1.2970216170269506,0.17599710516490835
1.298021633693895,0.18128461378708263
1.2990216503608394,0.1863665107561799
1.300021667027784,0.19117291663074817
1.3010216836947284,0.195646776033046
1.3020217003616728,0.19982513628947518
1.3030217170286174,0.2037865602504163
1.3040217336955617,0.2076096351122097
1.3050217503625061,0.21137280584884213
1.3060217670294505,0.215154386374748
1.307021783696395,0.21903255956923262
1.3080218003633395,0.22308537727647895
1.3090218170302839,0.22739076030553837
1.3100218336972285,0.2320264984303417
1.3110218503641728,0.2370574563651721
1.3120218670311172,0.24245485758209123
1.3130218836980618,0.2481500307589574
1.3140219003650062,0.25408314316557074
1.3150219170319506,0.26018283516966006
1.3160219336988952,0.2663753861088545
1.3170219503658396,0.27258713594568057
1.318021967032784,0.2787444852675709
1.3190219836997283,0.28477389528685493
1.320022000366673,0.2906018878407685
1.3210220170336173,0.2961652064338716
1.3220220337005617,0.3014752791634303
1.3230220503675063,0.30657685743991114
1.3240220670344507,0.31151490629519474
1.325022083701395,0.316334451386058
1.3260221003683397,0.3210805789941841
1.327022117035284,0.3257984360261537
1.3280221337022284,0.3305332300134525
1.329022150369173,0.3353302291124639
1.3300221670361174,0.3402347621044779
1.3310221837030618,0.34528593581139083
1.3320222003700062,0.35047655497870545
1.3330222170369508,0.3557787322503833
1.3340222337038952,0.3611645435860023
1.3350222503708395,0.36660612557003663
1.3360222670377842,0.3720756754118666
1.3370222837047285,0.3775454509457693
1.338022300371673,0.3829877706309283
1.3390223170386175,0.38837501355142423
1.340022333705562,0.3936796194162432
1.3410223503725063,0.39887628031984085
1.3420223670394509,0.4039560013244575
1.3430223837063953,0.4089171535954594
1.3440224003733396,0.4137582038381743
1.345022417040284,0.4184776793828274
1.3460224337072286,0.42307416818454946
1.347022450374173,0.42754631882336885
1.3480224670411174,0.43189284050421917
1.349022483708062,0.4361125030569323
1.3500225003750064,0.4402041369362445
1.3510225170419508,0.44416677451795805
1.3520225337088954,0.44800056160755874
1.3530225503758397,0.45170617986734163
1.3540225670427841,0.4552843738991593
1.3550225837097285,0.45873594892976227
1.356022600376673,0.46206177081080574
1.3570226170436175,0.46526276601884364
1.3580226337105619,0.46833992165533367
1.3590226503775065,0.47129428544663327
1.3600226670444509,0.47412696574400304
1.3610226837113952,0.47683644082395554
1.3620227003783398,0.47940110402323377
1.3630227170452842,0.4817902774044961
1.3640227337122286,0.4839732983353608
1.3650227503791732,0.4859195648083461
1.3660227670461176,0.4875985354408733
1.367022783713062,0.4889797294752641
1.3680228003800063,0.49003272677874254
1.369022817046951,0.4907271678434338
1.3700228337138953,0.491026758422178
1.3710228503808397,0.4908809579390236
1.3720228670477843,0.4903081967791403
1.3730228837147287,0.48934887863971716
1.374022900381673,0.48804347705918555
1.3750229170486177,0.4864324445729223
1.376022933715562,0.48455621271324884
1.3770229503825064,0.4824551920094328
1.378022967049451,0.4801697719876861
1.3790229837163954,0.4777403211711662
1.3800230003833398,0.4752071870799755
1.3810230170502842,0.4726078796390731
1.3820230337172288,0.46995859470209916
1.3830230503841732,0.4672657737275319
1.3840230670511176,0.4645357870417626
1.3850230837180622,0.46177498396813044
1.3860231003850065,0.45898969282691804
1.387023117051951,0.45618622093535494
1.3880231337188955,0.45337085460761334
1.38902315038584,0.4505498591548135
1.3900231670527843,0.44772947888501846
1.3910231837197289,0.4449134542748364
1.3920232003866733,0.44208664381395796
1.3930232170536176,0.43922522712547424
1.394023233720562,0.43630531741575795
1.3950232503875066,0.43330300688813167
1.396023267054451,0.4301943667428586
1.3970232837213954,0.42695544717715067
1.39802330038834,0.42356227738516233
1.3990233170552844,0.419990865557996
1.4000233337222288,0.41621719888369646
1.4010233503891734,0.41221953340689427
1.4020233670561177,0.4079935837929929
1.4030233837230621,0.40354310080471434
1.4040234003900067,0.3988718534259541
1.405023417056951,0.3939835872504507
1.4060234337238955,0.38888202393040694
1.4070234503908399,0.38357085970531507
1.4080234670577845,0.378053769442924
1.4090234837247289,0.3723344070079276
1.4100235003916732,0.3664164052619687
1.4110235170586178,0.3603062770520152
1.4120235337255622,0.35403276663153505
1.4130235503925066,0.3476348978104985
1.4140235670594512,0.3411517294163844
1.4150235837263956,0.3346222992736112
1.41602360039334,0.3280856242035493
1.4170236170602846,0.32158070002450684
1.418023633727229,0.31514650155174434
1.4190236503941733,0.30882198259746085
1.4200236670611177,0.30264607597080695
1.4210236837280623,0.2966525260297245
1.4220237003950067,0.2908352254887917
1.423023717061951,0.2851695313020292
1.4240237337288957,0.27963067691030064
1.42502375039584,0.2741938747514098
1.4260237670627844,0.26883431626011123
1.427023783729729,0.263527171868099
1.4280238003966734,0.25824759100401795
1.4290238170636178,0.25297070209345196
1.4300238337305622,0.2476716125589369
1.4310238503975068,0.2423279488755641
1.4320238670644512,0.2369369907018678
1.4330238837313956,0.23150518030150696
1.4340239003983402,0.22603899069136668
1.4350239170652845,0.22054487388527264
1.436023933732229,0.21502926089399987
1.4370239503991735,0.2094985617252649
1.438023967066118,0.20395916538373293
1.4390239837330623,0.1984174398710105
1.4400240004000069,0.19287973218565416
1.4410240170669513,0.18735370864689632
1.4420240337338956,0.18185744682061886
1.44302405040084,0.17641389327369025
1.4440240670677846,0.17104600161779324
1.445024083734729,0.1657767044615504
1.4460241004016734,0.16062891341053373
1.447024117068618,0.1556255190672571
1.4480241337355624,0.1507893910311828
1.4490241504025068,0.14614337789871437
1.4500241670694514,0.141710307263205
1.4510241837363957,0.13750967640533235
1.4520242004033401,0.13353507812057613
1.4530242170702847,0.12976766305230028
1.454024233737229,0.12618117394210265
1.4550242504041735,0.12275013355685843
1.4560242670711179,0.11945154401101053
1.4570242837380625,0.1162623972361269
1.4580243004050069,0.11315967498090657
1.4590243170719512,0.11012034881117395
1.4600243337388958,0.10712138010988512
1.4610243504058402,0.10414158002840776
1.4620243670727846,0.1011743681511508
1.4630243837397292,0.09822006364755446
1.4640244004066736,0.09527901653960989
1.465024417073618,0.09235156666643413
1.4660244337405626,0.08943804368427484
1.467024450407507,0.08653876706650558
1.4680244670744513,0.08365404610363066
1.4690244837413957,0.08078417990328017
1.4700245004083403,0.07792945739021505
1.4710245170752847,0.07509061261840674
1.472024533742229,0.07227196559087896
1.4730245504091737,0.06947953301216195
1.474024567076118,0.06671933171644616
1.4750245837430624,0.06399736835504839
1.476024600410007,0.06131963939641505
1.4770246170769514,0.05869213112611976
1.4780246337438958,0.05612081964686565
1.4790246504108404,0.053611670878482655
1.4800246670777848,0.05117064055793086
1.4810246837447292,0.0488050376265372
1.4820247004116736,0.04653298190269575
1.4830247170786182,0.04437774063136238
1.4840247337455625,0.042362602571646875
1.485024750412507,0.04051084629978629
1.4860247670794515,0.03884574020914708
1.487024783746396,0.03739054251022297
1.4880248004133403,0.03616850123063691
1.489024817080285,0.03520285421513938
1.4900248337472293,0.03451682912560983
1.4910248504141737,0.03412746700423979
1.4920248670811183,0.03400253636025832
1.4930248837480626,0.03408621774525673
1.494024900415007,0.034322534152255925
1.4950249170819514,0.03465549839140276
1.496024933748896,0.03502911308997354
1.4970249504158404,0.03538737069237319
1.4980249670827848,0.03567425346013435
1.4990249837497294,0.035833733471917664
1.5000250004166737,0.035809772623513134
1.5010250170836181,0.035553758533509
1.5020250337505627,0.03507666777411791
1.5030250504175071,0.03441811142227155
1.5040250670844515,0.03361788417935427
1.5050250837513959,0.03271578167203876
1.5060251004183405,0.031751589781097
1.5070251170852849,0.03076508420442916
1.5080251337522292,0.02979603045706296
1.5090251504191738,0.028884183871155402
1.5100251670861182,0.0280692895959913
1.5110251837530626,0.027386515565621893
1.5120252004200072,0.026834234459870498
1.5130252170869516,0.026393055682866626
1.514025233753896,0.026043463709614377
1.5150252504208406,0.025765932832245715
1.516025267087785,0.025540927160021133
1.5170252837547293,0.025348900619329418
1.5180253004216737,0.025170296953687443
1.5190253170886183,0.024985549723740657
1.5200253337555627,0.024777581625062363
1.521025350422507,0.024536709558139302
1.5220253670894517,0.024264427472827494
1.523025383756396,0.023970632747833457
1.5240254004233404,0.023665375759051734
1.525025417090285,0.023358801767053326
1.5260254337572294,0.023061150917086153
1.5270254504241738,0.022782758239074677
1.5280254670911184,0.022534053647620397
1.5290254837580628,0.022325561942001235
1.5300255004250072,0.022167902806172125
1.5310255170919516,0.022071733458282748
1.5320255337588962,0.022047339508475046
1.5330255504258405,0.022104874434997954
1.534025567092785,0.022254585084253643
1.5350255837597295,0.022506813187321364
1.536025600426674,0.022871995359956463
1.5370256170936183,0.02336066310259181
1.538025633760563,0.02398344280033641
1.5390256504275073,0.02475105572297606
1.5400256670944517,0.025674318024973972
1.5410256837613963,0.026759788225102776
1.5420257004283406,0.027978541241612604
1.543025717095285,0.029284360717452093
1.5440257337622294,0.030631007126400166
1.545025750429174,0.03197233582691254
1.5460257670961184,0.03326229706212255
1.5470257837630628,0.0344549359598391
1.5480258004300074,0.035504392532548994
1.5490258170969518,0.036364901677414595
1.5500258337638961,0.036990793176275745
1.5510258504308407,0.037343092473455894
1.5520258670977851,0.037437142849676655
1.5530258837647295,0.03731498982972308
1.554025900431674,0.03701895743959342
1.5550259170986185,0.03659146458996339
1.5560259337655629,0.03607502507618481
1.5570259504325072,0.035512247578286284
1.5580259670994518,0.034945835660974034
1.5590259837663962,0.0344185877736294
1.5600260004333406,0.0339733972503119
1.5610260171002852,0.0336497290714924
1.5620260337672296,0.03345805777195562
1.563026050434174,0.033394621195780454
1.5640260671011186,0.03345565156692524
1.565026083768063,0.03363747599402508
1.5660261004350073,0.033936516470392204
1.567026117101952,0.03434928987401483
1.5680261337688963,0.03487240796755889
1.5690261504358407,0.035502577398366014
1.570026167102785,0.03623659969845539
1.5710261837697297,0.03707192397713371
1.572026200436674,0.03801067946927654
1.5730262171036185,0.03905735902181667
1.574026233770563,0.04021656653256616
1.5750262504375074,0.04149300078401285
1.5760262671044518,0.042891455443322485
1.5770262837713964,0.0444168190623361
1.5780263004383408,0.04607407507757319
1.5790263171052852,0.04786830181022803
1.5800263337722296,0.049804672466173566
1.5810263504391742,0.051886670499856326
1.5820263671061185,0.054101868043347136
1.583026383773063,0.056420680956280576
1.5840264004400075,0.058823925283168724
1.585026417106952,0.061295319493934075
1.5860264337738963,0.06381804736871663
1.587026450440841,0.06637475799786884
1.5880264671077853,0.06894756578196076
1.5890264837747297,0.07151805043177549
1.5900265004416743,0.07406725696831316
1.5910265171086186,0.07658225988729862
1.592026533775563,0.07910459849640473
1.5930265504425074,0.08170271690871174
1.594026567109452,0.08444472634701106
1.5950265837763964,0.08739820334430645
1.5960266004433408,0.09063018974382024
1.5970266171102854,0.09420719269898599
1.5980266337772298,0.09819518467345614
1.5990266504441741,0.10265960344109452
1.6000266671111187,0.10766535208598392
1.6010266837780631,0.11326300447457255
1.6020267004450075,0.11938644409909552
1.603026717111952,0.12591082880324042
1.6040267337788965,0.132710342286756
1.6050267504458409,0.139658626608791
1.6060267671127852,0.14662878913584676
1.6070267837797299,0.15349340871389602
1.6080268004466742,0.16012453338548677
1.6090268171136186,0.1663936765640634
1.6100268337805632,0.172171816973291
1.6110268504475076,0.17734774713020923
1.612026867114452,0.18196499601324828
1.6130268837813966,0.18614466690592643
1.614026900448341,0.19000792101492894
1.6150269171152853,0.19367538485714939
1.61602693378223,0.19726715025970293
1.6170269504491743,0.2009027743599146
1.6180269671161187,0.2047012796053283
1.619026983783063,0.2087811537536994
1.6200270004500077,0.21326034987300363
1.621027017116952,0.21824075822057631
1.6220270337838965,0.22369167501489232
1.623027050450841,0.22951515434258965
1.6240270671177854,0.2356122016314756
1.6250270837847298,0.24188328761956707
1.6260271004516744,0.2482283483551019
1.6270271171186188,0.2545603564796219
1.6280271337855632,0.2607908150503818
1.6290271504525078,0.266815555190778
1.6300271671194522,0.27253128863126086
1.6310271837863966,0.2778442700721577
1.632027200453341,0.2827356031467904
1.6330272171202855,0.28722479501703413
1.63402723378723,0.2913325360493457
1.6350272504541743,0.2950804063199661
1.636027267121119,0.2984908756149279
1.6370272837880633,0.30158730343004814
1.6380273004550077,0.30439393897093553
1.6390273171219523,0.30693592115298324
1.6400273337888966,0.30923927860137523
1.641027350455841,0.3113283729655546
1.6420273671227856,0.31320649446178295
1.64302738378973,0.31486663774231116
1.6440274004566744,0.3163025983193462
1.6450274171236188,0.31750906141488044
1.6460274337905634,0.31848160196069675
1.6470274504575078,0.3192166845983639
1.6480274671244521,0.31971166367924014
1.6490274837913967,0.3199647832644708
1.6500275004583411,0.3199751771249897
1.6510275171252855,0.31974223616751074
1.65202753379223,0.319260780202604
1.6530275504591745,0.31852372594881334
1.6540275671261189,0.3175248573125166
1.6550275837930633,0.31625884790988057
1.6560276004600079,0.3147212610668595
1.6570276171269522,0.3129085498191963
1.6580276337938966,0.31081805691242065
1.6590276504608412,0.3084480148018524
1.6600276671277856,0.3057975456525959
1.66102768379473,0.3028664782714686
1.6620277004616746,0.2996539428896523
1.663027717128619,0.2961591438004968
1.6640277337955633,0.29238216833015745
1.665027750462508,0.2883239935145809
1.6660277671294523,0.283986486099499
1.6670277837963967,0.2793724025404318
1.668027800463341,0.27448538900269026
1.6690278171302857,0.269329981361369
1.67002783379723,0.2639036037073863
1.6710278504641745,0.2581885906461025
1.672027867131119,0.25221909539531534
1.6730278837980634,0.2460439226728067
1.6740279004650078,0.23971124980672656
1.6750279171319524,0.2332685194394608
1.6760279337988968,0.2267624395276431
1.6770279504658412,0.2202389833421428
1.6780279671327858,0.21374338946807697
1.6790279837997302,0.20732016180479912
1.6800280004666746,0.20101306956590909
1.681028017133619,0.1948619729601955
1.6820280338005635,0.188878180152251
1.683028050467508,0.18305786111885722
1.6840280671344523,0.17739632968979396
1.685028083801397,0.17188816500907775
1.6860281004683413,0.16652721153497255
1.6870281171352857,0.16130657903997817
1.6880281338022303,0.1562186426108419
1.6890281504691746,0.1512550426485474
1.690028167136119,0.14640668486832495
1.6910281838030636,0.14166399090804946
1.692028200470008,0.13701885491051885
1.6930282171369524,0.13246358390388902
1.6940282338038968,0.12798976005100335
1.6950282504708414,0.12358823082894253
1.6960282671377858,0.11924910902903348
1.6970282838047301,0.1149617727568406
1.6980283004716747,0.11071486543217414
1.6990283171386191,0.10649629578908208
1.7000283338055635,0.10229323787585815
1.701028350472508,0.0980950968078373
1.7020283671394525,0.0939167949246976
1.7030283838063969,0.08978622513597147
1.7040284004733415,0.0857306643283552
1.7050284171402859,0.08177665391036482
1.7060284338072302,0.07795000049416721
1.7070284504741746,0.0742757760061673
1.7080284671411192,0.0707783176870154
1.7090284838080636,0.06748122809160045
1.710028500475008,0.06440737508905565
1.7110285171419526,0.06157488777834246
1.712028533808897,0.05896554660334395
1.7130285504758413,0.05658024325316967
1.714028567142786,0.054374810634893446
1.7150285838097303,0.052251684329690566
1.7160286004766747,0.05011833320597182
1.7170286171436193,0.04788725941938006
1.7180286338105637,0.04547599841279484
1.719028650477508,0.0428071189163269
1.7200286671444525,0.03980822294732398
1.721028683811397,0.036413867861308284
1.7220287004783414,0.03258082983110365
1.7230287171452858,0.028279964371125555
1.7240287338122304,0.023487241137672907
1.7250287504791748,0.018183663074274818
1.7260287671461192,0.012355266411698963
1.7270287838130638,0.005993120667942145
1.7280288004800082,-0.0009066713517597688
1.7290288171469526,-0.008342973554942214
1.730028833813897,-0.01630961656190044
1.7310288504808415,-0.024794002627305987
1.732028867147786,-0.033765963908951216
1.7330288838147303,-0.04318367304342307
1.734028900481675,-0.053000209300224886
1.7350289171486193,-0.06316361866163289
1.7360289338155637,-0.07364557615620336
1.7370289504825083,-0.0843009317798237
1.7380289671494527,-0.09486558774219435
1.739028983816397,-0.10507957086842637
1.7400290004833416,-0.11468764140856053
1.741029017150286,-0.12344082016499414
1.7420290338172304,-0.13110865430970958
1.7430290504841748,-0.13747274457645461
1.7440290671511194,-0.14231949244596334
1.7450290838180638,-0.1454400328239128
1.7460291004850081,-0.14663023404091532
1.7470291171519527,-0.14569069785252356
1.7480291338188971,-0.14242675943922853
1.7490291504858415,-0.13664848740645813
1.7500291671527861,-0.1281706837845825
1.7510291838197305,-0.11681302007739378
1.7520292004866749,-0.10240113622709945
1.7530292171536195,-0.08476606373641105
1.7540292338205639,-0.0637435736718857
1.7550292504875082,-0.03917417052500177
1.7560292671544526,-0.010903092212196366
1.7570292838213972,0.021219689925177716
1.7580293004883416,0.05733947112080377
1.759029317155286,0.09773982392939956
1.7600293338222306,0.1425810722643038
1.761029350489175,0.1914910782761342
1.7620293671561194,0.244036433853306
1.763029383823064,0.29974568149223546
1.7640294004900083,0.35812198086015357
1.7650294171569527,0.41864322975990437
1.7660294338238973,0.4807620641298451
1.7670294504908417,0.5439058580439492
1.768029467157786,0.6074767237116997
1.7690294838247305,0.6708515114781998
1.770029500491675,0.7333818098240583
1.7710295171586194,0.7944024336890197
1.7720295338255638,0.8533007758768926
1.7730295504925084,0.9094807893415079
1.7740295671594528,0.962321566348973
1.7750295838263972,1.0111769373010095
1.7760296004933418,1.0553754707348557
1.7770296171602862,1.094220473323356
1.7780296338272306,1.126989989874882
1.7790296504941752,1.1529368033334002
1.7800296671611195,1.1712884347784154
1.781029683828064,1.181236518286149
1.7820297004950083,1.1819261547067648
1.783029717161953,1.173389108896206
1.7840297338288973,1.1562907161883147
1.7850297504958417,1.131298564386218
1.7860297671627863,1.0990710048756025
1.7870297838297307,1.0602571526246687
1.788029800496675,1.0154968861841884
1.7890298171636196,0.9654208476874343
1.790029833830564,0.9106504428502638
1.7910298504975084,0.8518053091931268
1.792029867164453,0.7895650325219542
1.7930298838313974,0.7246374396496587
1.7940299004983418,0.6577214905478832
1.7950299171652861,0.5895069087708565
1.7960299338322308,0.5206741814552865
1.7970299504991751,0.45189455932048134
1.7980299671661195,0.3838300566682282
1.7990299838330641,0.31713345138291354
1.8000300005000085,0.25244828493140475
1.8010300171669529,0.19040573759218918
1.8020300338338975,0.13159865795882936
1.8030300505008419,0.07659483266673668
1.8040300671677862,0.025941982111451597
1.8050300838347306,-0.020327903999971433
1.8060301005016752,-0.06235233933219014
1.8070301171686196,-0.10014949191824932
1.808030133835564,-0.1337571624962281
1.8090301505025086,-0.16323277678226192
1.810030167169453,-0.18865338299580348
1.8110301838363974,-0.2101149401303754
1.812030200503342,-0.22772636877647054
1.8130302171702863,-0.24161257417513185
1.8140302338372307,-0.2519180472040517
1.8150302505041753,-0.25880690124420164
1.8160302671711197,-0.26246287217985015
1.817030283838064,-0.26308931839855104
1.8180303005050085,-0.26090922079114975
1.819030317171953,-0.2561651827517817
1.8200303338388975,-0.24911943017786956
1.8210303505058418,-0.24005284034014973
1.8220303671727864,-0.22925677791079024
1.8230303838397308,-0.21703722050278845
1.8240304005066752,-0.20371971677348624
1.8250304171736198,-0.18964943788352673
1.8260304338405642,-0.17518794224833864
1.8270304505075086,-0.16056724526037783
1.8280304671744532,-0.14590895651976932
1.8290304838413975,-0.13133708309173867
1.830030500508342,-0.11696165349747817
1.8310305171752863,-0.1028820396983451
1.832030533842231,-0.08921504411834373
1.8330305505091753,-0.07608078538649064
1.8340305671761197,-0.06358558364547026
1.8350305838430643,-0.05182178049395804
1.8360306005100087,-0.040867738986598415
1.837030617176953,-0.030787843634025987
1.8380306338438976,-0.02163250040284637
1.839030650510842,-0.013438136715652516
1.8400306671777864,-0.006227201451010677
1.841030683844731,-3.0735836580454267e-06
1.8420307005116754,0.0052932318396422115
1.8430307171786198,0.009761429743593456
1.8440307338455642,0.013515495854299136
1.8450307505125088,0.016683384441879348
1.8460307671794531,0.01940702832047781
1.8470307838463975,0.021842338848254487
1.8480308005133421,0.024154630077453138
1.8490308171802865,0.026397738981648912
1.8500308338472309,0.028614941335105924
1.8510308505141755,0.030872519618183644
1.8520308671811199,0.033184708859109395
1.8530308838480642,0.03553619318498443
1.8540309005150089,0.037909879351944516
1.8550309171819532,0.04028719691271578
1.8560309338488976,0.042648098216616845
1.857030950515842,0.044971058409557306
1.8580309671827866,0.04723307543403882
1.859030983849731,0.04940967002915342
1.8600310005166754,0.05147488573058665
1.86103101718362,0.05340560302767383
1.8620310338505643,0.05521864742948624
1.8630310505175087,0.056952456434616744
1.8640310671844533,0.05864424049025024
1.8650310838513977,0.06032973284016144
1.866031100518342,0.06204318952471813
1.8670311171852865,0.06381738938087837
1.868031133852231,0.06568363404219296
1.8690311505191755,0.06767174793880283
1.8700311671861198,0.0698100782974423
1.8710311838530644,0.0721232640423352
1.8720312005200088,0.07461293463246918
1.8730312171869532,0.0772671909960442
1.8740312338538978,0.08007269842843899
1.8750312505208422,0.0830295886742406
1.8760312671877866,0.08613905772148885
1.8770312838547312,0.08939540992579519
1.8780313005216756,0.09279281996578276
1.87903131718862,0.09632533284308153
1.8800313338555643,0.09998686388233348
1.881031350522509,0.10377130215457056
1.8820313671894533,0.10767341034298346
1.8830313838563977,0.11168838527353717
1.8840314005233423,0.11581130036560869
1.8850314171902867,0.12003709936158154
1.886031433857231,0.12436059632685112
1.8870314505241756,0.12877647564981926
1.88803146719112,0.13327929204190042
1.8890314838580644,0.13786347053751474
1.890031500525009,0.14252330649409525
1.8910315171919534,0.14725250727266626
1.8920315338588978,0.15204018150464021
1.8930315505258422,0.15687278641967692
1.8940315671927868,0.16173662115974743
1.8950315838597311,0.16661785518982897
1.8960316005266755,0.17150252829791077
1.8970316171936201,0.17637655059498816
1.8980316338605645,0.1812257025150698
1.8990316505275089,0.18603563481516924
1.9000316671944535,0.19079186857531374
1.9010316838613979,0.19548254063288203
1.9020317005283423,0.200122567386755
1.9030317171952869,0.20474198137680846
1.9040317338622312,0.20937085877630324
1.9050317505291756,0.21403914190424947
1.90603176719612,0.2187766418227026
1.9070317838630646,0.22361303991376275
1.908031800530009,0.22857788788254285
1.9090318171969534,0.2337006077571615
1.910031833863898,0.23901049188875065
1.9110318505308423,0.24453253039136955
1.9120318671977867,0.250252493025522
1.9130318838647313,0.25614095909278306
1.9140319005316757,0.2621569004899283
1.91503191719862,0.2682574364379805
1.9160319338655647,0.2743997508886972
1.917031950532509,0.2805410925245593
1.9180319671994535,0.2866387747587815
1.9190319838663978,0.29265017573530283
1.9200320005333424,0.2985327383287944
1.9210320172002868,0.30424785223055967
1.9220320338672312,0.3097954179108786
1.9230320505341758,0.3151973605797377
1.9240320672011202,0.32047592728114127
1.9250320838680646,0.3256534297898271
1.9260321005350092,0.33075224461125774
1.9270321172019536,0.3357948129816287
1.928032133868898,0.3408036408678599
1.9290321505358425,0.34580129896760525
1.930032167202787,0.350810422709242
1.9310321838697313,0.35585130581129176
1.9320322005366757,0.3609203506930799
1.9330322172036203,0.36600028534916346
1.9340322338705647,0.3710737395998805
1.935032250537509,0.37612340799630223
1.9360322672044536,0.38113204982022436
1.937032283871398,0.3860824890841759
1.9380323005383424,0.3909576145314104
1.939032317205287,0.39574037963591435
1.9400323338722314,0.40041380260239917
1.9410323505391758,0.4049634808163282
1.9420323672061202,0.4094002380504817
1.9430323838730648,0.4137494521252982
1.9440324005400091,0.41803673956803616
1.9450324172069535,0.42228778163668707
1.9460324338738981,0.42652832431996696
1.9470324505408425,0.4307841783373248
1.9480324672077869,0.43508121913893416
1.9490324838747315,0.43944538690570156
1.9500325005416759,0.443902686549259
1.9510325172086203,0.4484727441415693
1.9520325338755649,0.4531104344100836
1.9530325505425092,0.4577332207457713
1.9540325672094536,0.46225817561986754
1.955032583876398,0.4666024362343375
1.9560326005433426,0.47068320452187284
1.957032617210287,0.47441774714589763
1.9580326338772314,0.4777233955005609
1.959032650544176,0.4805175457107443
1.9600326672111203,0.48271765863205496
1.9610326838780647,0.48425186014501265
1.9620327005450093,0.485155526704651
1.9630327172119537,0.48552632528735257
1.964032733878898,0.48546275364370073
1.9650327505458427,0.4850633742550074
1.966032767212787,0.4844268143333137
1.9670327838797315,0.4836517658213902
1.9680328005466758,0.4828367924869737
1.9690328172136204,0.4820587443916203
1.9700328338805648,0.48140693824490066
1.9710328505475092,0.4809771236650437
1.9720328672144538,0.4807546244160735
1.9730328838813982,0.4806603878045117
1.9740329005483426,0.48061453682161437
1.9750329172152872,0.48053717225503423
1.9760329338822316,0.4803483726888226
1.977032950549176,0.47996819450342676
1.9780329672161205,0.4793166718756938
1.979032983883065,0.47831381677886586
1.9800330005500093,0.4768796189825839
1.9810330172169537,0.47494170302096933
1.9820330338838983,0.4725059084548896
1.9830330505508427,0.4696238422841428
1.984033067217787,0.4663476670937449
1.9850330838847317,0.46272952326510725
1.986033100551676,0.4588215289760405
1.9870331172186204,0.45467578020075083
1.988033133885565,0.4503443507098447
1.9890331505525094,0.44587929207032256
1.9900331672194538,0.4413326336455857
1.9910331838863984,0.43675383280130803
1.9920332005533428,0.43216613469627624
1.9930332172202871,0.4275773719380206
1.9940332338872315,0.4229951583389965
1.9950332505541761,0.4184270855080545
1.9960332672211205,0.4138807228504457
1.997033283888065,0.4093636175678148
1.9980333005550095,0.40488329465820816
1.9990333172219539,0.4004472569160655
2.0000333338888985,0.3960629849322285
2.0010333505558426,0.39173411282758047
2.0020333672227872,0.3874247653586763
2.003033383889732,0.3830757466292639
2.004033400556676,0.37862753735031607
2.0050334172236206,0.3740205966765598
2.006033433890565,0.36919536194673386
2.0070334505575094,0.3640922484191268
2.008033467224454,0.3586516556866756
2.0090334838913986,0.35281397097614364
2.0100335005583427,0.3465195601231482
2.0110335172252873,0.3397186319283713
2.0120335338922315,0.3324637713921002
2.013033550559176,0.3248682040010656
2.0140335672261207,0.31704592696096073
2.015033583893065,0.309110915273884
2.0160336005600095,0.30117712173832195
2.017033617226954,0.29335847694916295
2.0180336338938982,0.28576888929769007
2.019033650560843,0.2785222449715902
2.0200336672277874,0.27173240795494186
2.0210336838947316,0.2655024343162762
2.022033700561676,0.2598228140197324
2.023033717228621,0.25461707154896784
2.024033733895565,0.24980782245699165
2.0250337505625096,0.2453176600932129
2.026033767229454,0.24106915560343456
2.0270337838963983,0.2369848579298673
2.028033800563343,0.23298729381110853
2.0290338172302875,0.22899896778215817
2.0300338338972317,0.22494236217441002
2.0310338505641763,0.22074504318201094
2.032033867231121,0.21638811567308106
2.033033883898065,0.21188465040633336
2.0340339005650097,0.20724812475111284
2.0350339172319543,0.2024919938731705
2.0360339338988984,0.1976296907346467
2.037033950565843,0.19267462609408223
2.038033967232787,0.18764018850641256
2.039033983899732,0.18253974432297798
2.0400340005666764,0.1773866376915091
2.0410340172336205,0.17219432455278957
2.042034033900565,0.16697765165940762
2.0430340505675098,0.16175229087052712
2.044034067234454,0.15653390333627326
2.0450340839013985,0.15133812800317079
2.046034100568343,0.14618058161413988
2.0470341172352873,0.141076858708505
2.048034133902232,0.13604253162198068
2.0490341505691765,0.13109315048668216
2.0500341672361206,0.12624424323112174
2.0510341839030652,0.12151037394066787
2.05203420057001,0.11689609683017006
2.053034217236954,0.11239508721035428
2.0540342339038986,0.10799861566631368
2.055034250570843,0.10370081342313753
2.0560342672377874,0.0994958074099406
2.057034283904732,0.09537772025985301
2.0580343005716766,0.09134067031002771
2.0590343172386207,0.08737877160163578
2.0600343339055653,0.08348613387987441
2.0610343505725095,0.0796594728445949
2.062034367239454,0.07592331813613898
2.0630343839063987,0.07231901147075566
2.064034400573343,0.06888812384986995
2.0650344172402875,0.0656722219789235
2.066034433907232,0.06271286826737998
2.0670344505741762,0.0600516208287223
2.068034467241121,0.05773003348045771
2.0690344839080654,0.055789655744110114
2.0700345005750096,0.0542720328452257
2.071034517241954,0.05321042285435726
2.072034533908899,0.05254933729851052
2.073034550575843,0.05217942103467559
2.0740345672427876,0.051990557656346935
2.075034583909732,0.05187262646104055
2.0760346005766763,0.05171550245029405
2.077034617243621,0.05140905632966286
2.0780346339105655,0.050843154508725466
2.0790346505775097,0.04990765910107825
2.0800346672444543,0.04849242792434215
2.081034683911399,0.04649956305143654
2.082034700578343,0.043963091598613085
2.0830347172452877,0.040997434895927685
2.0840347339122323,0.03771815311595851
2.0850347505791764,0.03424080213530267
2.086034767246121,0.030680933534577185
2.087034783913065,0.02715409459842055
2.08803480058001,0.023775828315492162
2.0890348172469544,0.02066167337847134
2.0900348339138985,0.01792716418405873
2.091034850580843,0.015677762651191165
2.0920348672477878,0.013909903439606904
2.093034883914732,0.01255330931116843
2.0940349005816765,0.011536739202089752
2.095034917248621,0.010788947752605122
2.0960349339155653,0.010238685306970518
2.09703495058251,0.00981469791346156
2.0980349672494545,0.009445727324374396
2.0990349839163986,0.00906051099602599
2.1000350005833432,0.008587782088754464
2.101035017250288,0.007962719479886962
2.102035033917232,0.0071907146394912655
2.1030350505841766,0.0063202916345704956
2.104035067251121,0.005400598262813336
2.1050350839180654,0.004480785024110671
2.10603510058501,0.003610004606893989
2.1070351172519546,0.002837405648391202
2.1080351339188987,0.0022121324898517637
2.1090351505858433,0.0017833251765448366
2.110035167252788,0.0016001194577603657
2.111035183919732,0.0017050795985880662
2.1120352005866767,0.0020688904891943824
2.113035217253621,0.0026178989452188784
2.1140352339205655,0.0032777949528589867
2.11503525058751,0.0039742642023331675
2.1160352672544542,0.00463298808788015
2.117035283921399,0.005179643707758915
2.1180353005883434,0.005539903864249731
2.1190353172552876,0.005639437063652771
2.120035333922232,0.005403907516289209
2.121035350589177,0.0047672046883586484
2.122035367256121,0.003753765485312272
2.1230353839230656,0.002444101680985236
2.12403540059001,0.000919767832555712
2.1250354172569543,-0.0007324186882836248
2.126035433923899,-0.0024284314049557755
2.1270354505908435,-0.004086484597540257
2.1280354672577877,-0.0056247063939253205
2.1290354839247323,-0.006961138769808657
2.130035500591677,-0.008013737548695258
2.131035517258621,-0.008707527710359785
2.1320355339255657,-0.00904660238759655
2.1330355505925103,-0.009084186889021038
2.1340355672594544,-0.008874161469153796
2.135035583926399,-0.00847032023032437
2.136035600593343,-0.007926371122670889
2.137035617260288,-0.007295935944139137
2.1380356339272324,-0.006632550340484245
2.1390356505941766,-0.00598966380526981
2.140035667261121,-0.005420639679867214
2.1410356839280658,-0.004974946753935092
2.14203570059501,-0.0046596113499503015
2.1430357172619545,-0.004455130240052548
2.144035733928899,-0.004341511356716243
2.1450357505958433,-0.004298676480224167
2.146035767262788,-0.004306461238667992
2.1470357839297325,-0.00434461510794739
2.1480358005966766,-0.004392801411771138
2.1490358172636213,-0.004430597321656119
2.150035833930566,-0.004437493856927648
2.15103585059751,-0.004394099179128868
2.1520358672644546,-0.0042943902131934095
2.153035883931399,-0.004140691585863641
2.1540359005983434,-0.003935371655108568
2.155035917265288,-0.0036807126267055564
2.1560359339322326,-0.0033789105542408183
2.1570359505991767,-0.0030320753391085862
2.1580359672661213,-0.0026422307305119094
2.159035983933066,-0.0022113143254620903
2.16003600060001,-0.0017411775687793361
2.1610360172669547,-0.0012337029542360968
2.162036033933899,-0.0006920044073514707
2.1630360506008435,-0.00011993891928548995
2.164036067267788,0.0004787097573712947
2.1650360839347322,0.001100244022220099
2.166036100601677,0.0017410524270538251
2.1670361172686214,0.002397609675856862
2.1680361339355656,0.0030664766248042806
2.16903615060251,0.003744300282263537
2.170036167269455,0.004427813808793405
2.171036183936399,0.005114734805669687
2.1720362006033436,0.005813020242594044
2.173036217270288,0.006537128858846978
2.1740362339372323,0.007301706574642439
2.175036250604177,0.008121485462386424
2.1760362672711215,0.009011283746674894
2.1770362839380657,0.009986005804296542
2.1780363006050103,0.011060642164231459
2.179036317271955,0.012250269507651056
2.180036333938899,0.013570050667918842
2.1810363506058437,0.015034784450034984
2.1820363672727883,0.01665423993691518
2.1830363839397324,0.018435026738160113
2.184036400606677,0.020383788937349857
2.1850364172736216,0.022507256770253028
2.186036433940566,0.024812246624832703
2.1870364506075104,0.027305661041242085
2.1880364672744546,0.029994488711827614
2.189036483941399,0.03288580448112343
2.1900365006083438,0.035986769345858524
2.191036517275288,0.0393032124640987
2.1920365339422325,0.04282431344157071
2.193036550609177,0.046526153051576986
2.1940365672761213,0.05038343772242757
2.195036583943066,0.0543704796569273
2.1960366006100105,0.05846119715517016
2.1970366172769547,0.06262911461453097
2.1980366339438993,0.06684736252967638
2.199036650610844,0.07108867749255844
2.200036667277788,0.07532540219241694
2.2010366839447326,0.07953250126884091
2.2020367006116772,0.08371919090370264
2.2030367172786214,0.08791645032205643
2.204036733945566,0.09215522505362483
2.2050367506125106,0.09646604657889801
2.2060367672794547,0.10087902369041025
2.2070367839463993,0.10542386906675717
2.208036800613344,0.11012990087291635
2.209036817280288,0.11502603657633748
2.2100368339472327,0.1201407954995188
2.211036850614177,0.1254988848465478
2.2120368672811215,0.13108513722654228
2.213036883948066,0.13685864064277387
2.2140369006150102,0.1427776720743938
2.215036917281955,0.14880011459783704
2.2160369339488994,0.15488345738682832
2.2170369506158436,0.16098479571237104
2.218036967282788,0.16706083094276292
2.219036983949733,0.17306787054358566
2.220037000616677,0.1789618280777106
2.2210370172836216,0.1847011238820276
2.222037033950566,0.19027747078250642
2.2230370506175103,0.19570390473646637
2.224037067284455,0.20099342902545383
2.2250370839513995,0.20615865302829486
2.2260371006183437,0.21121179222110892
2.2270371172852883,0.2161646681773002
2.228037133952233,0.22102870856756154
2.229037150619177,0.22581494715986544
2.2300371672861217,0.23053402381947843
2.2310371839530663,0.23519451685040507
2.2320372006200104,0.2397851378673768
2.233037217286955,0.24428160041497013
2.2340372339538996,0.24865901221226944
2.235037250620844,0.2528920870756436
2.2360372672877884,0.2569551449187499
2.2370372839547326,0.26082211175252695
2.238037300621677,0.2644665196852054
2.2390373172886218,0.26786150692230065
2.240037333955566,0.27098012601822563
2.2410373506225105,0.2738068984852119
2.242037367289455,0.2763390785493061
2.2430373839563993,0.2785775438674701
2.244037400623344,0.28052382672276305
2.2450374172902885,0.2821800261866045
2.2460374339572327,0.2835488081187782
2.2470374506241773,0.28463340516742947
2.248037467291122,0.2854376167690661
2.249037483958066,0.285965809148557
2.2500375006250106,0.28622291531913463
2.2510375172919552,0.28621379209002795
2.2520375339588994,0.2859362725487382
2.253037550625844,0.28538380395165946
2.2540375672927886,0.2845503152694584
2.2550375839597327,0.28343030226116367
2.2560376006266774,0.2820188274741651
2.257037617293622,0.2803115202442176
2.258037633960566,0.2783045766954357
2.2590376506275107,0.2759947597402964
2.2600376672944553,0.2733793990796387
2.2610376839613995,0.2704570747422652
2.262037700628344,0.267235047026866
2.2630377172952882,0.2637264580925741
2.264037733962233,0.2599451091624979
2.2650377506291774,0.2559053682481135
2.2660377672961216,0.2516221701492537
2.267037783963066,0.24711101645411543
2.268037800630011,0.24238797553925576
2.269037817296955,0.23746968256959985
2.2700378339638996,0.23237333949842923
2.271037850630844,0.2271165400949406
2.2720378672977883,0.2217153566020494
2.273037883964733,0.21618505453084652
2.2740379006316775,0.21054144208139425
2.2750379172986217,0.2048008942421198
2.2760379339655663,0.19898035278981027
2.277037950632511,0.19309732628962234
2.278037967299455,0.18716989009506732
2.2790379839663997,0.181216686348021
2.2800380006333443,0.17525692397871898
2.2810380173002884,0.16931009069895597
2.282038033967233,0.16339278467245844
2.2830380506341776,0.1575198884519433
2.284038067301122,0.15170681090846547
2.2850380839680664,0.14595563004817416
2.2860381006350106,0.1402147579888631
2.287038117301955,0.1344931418575627
2.2880381339688998,0.12880764683830057
2.289038150635844,0.12317349111259465
2.2900381673027885,0.1176042458594388
2.291038183969733,0.11211198323858096
2.2920382006366773,0.10670891414291879
2.293038217303622,0.10140678639995303
2.2940382339705665,0.09621572204850841
2.2950382506375107,0.09114419612489505
2.2960382673044553,0.08619903666290452
2.2970382839714,0.08138542469381793
2.298038300638344,0.07670689424639315
2.2990383173052886,0.07216533234687338
2.3000383339722332,0.06776097901898333
2.3010383506391774,0.06349284163514696
2.302038367306122,0.05936330825923548
2.3030383839730666,0.05537646664228255
2.3040384006400108,0.05153481825197005
2.3050384173069554,0.047839244427035875
2.3060384339739,0.044289039687140874
2.307038450640844,0.04088185972762555
2.3080384673077887,0.03761371324131369
2.3090384839747333,0.03447896191851091
2.3100385006416775,0.03147032044700998
2.311038517308622,0.0285777480405947
2.3120385339755662,0.02577603229906638
2.313038550642511,0.023029275121592734
2.3140385673094555,0.02029976604508375
2.3150385839763996,0.017548147603928813
2.316038600643344,0.014733415330001637
2.317038617310289,0.011812917752658036
2.318038633977233,0.008742356398741014
2.3190386506441776,0.0054757857925728775
2.320038667311122,0.001965613455960253
2.3210386839780663,-0.0018354807262895396
2.322038700645011,-0.005952915416739063
2.3230387173119555,-0.010397955544658295
2.3240387339788997,-0.015183220972658364
2.3250387506458443,-0.020322978565868906
2.326038767312789,-0.025833142191930517
2.327038783979733,-0.03174227908772597
2.3280388006466777,-0.03807495305299974
2.3290388173136223,-0.04482173161470904
2.3300388339805664,-0.05195922852296372
2.331038850647511,-0.0594532877103312
2.3320388673144556,-0.06729252352654148
2.3330388839814,-0.07547641017116699
2.3340389006483444,-0.08399115277595952
2.335038917315289,-0.09280922821001823
2.336038933982233,-0.10188938507977441
2.3370389506491778,-0.1111766437290006
2.338038967316122,-0.12060229623879225
2.3390389839830665,-0.13008390642759404
2.340039000650011,-0.13952530985118272
2.3410390173169553,-0.1488120872999019
2.3420390339839,-0.1577599361227903
2.3430390506508445,-0.16613284406140777
2.3440390673177887,-0.17368035398165077
2.3450390839847333,-0.1801382804867533
2.346039100651678,-0.1852287099172796
2.347039117318622,-0.18866000035113678
2.3480391339855666,-0.19012678160356591
2.3490391506525112,-0.18930995522714344
2.3500391673194554,-0.18587669451178393
2.3510391839864,-0.17948585914048887
2.3520392006533446,-0.1699266640564004
2.3530392173202888,-0.15748919142663642
2.3540392339872334,-0.14195781827145254
2.355039250654178,-0.12304962239154642
2.356039267321122,-0.1005439717521474
2.3570392839880667,-0.07428252448299727
2.3580393006550113,-0.04416922887839873
2.3590393173219555,-0.010170323397147669
2.3600393339889,0.027685663337424907
2.3610393506558442,0.0693116220181561
2.362039367322789,0.11460468825178527
2.3630393839897335,0.1634314341156793
2.3640394006566776,0.2155967524105708
2.365039417323622,0.27084324577269275
2.366039433990567,0.32885122667367694
2.367039450657511,0.38923871742070343
2.3680394673244556,0.45156145015640226
2.3690394839914,0.5153128668589064
2.3700395006583443,0.579924119341737
2.371039517325289,0.6447633348678213
2.3720395339922336,0.7091270861032051
2.3730395506591777,0.7722433140356995
2.3740395673261223,0.8332775461463623
2.375039583993067,0.8913330197518093
2.376039600660011,0.9454506820041036
2.3770396173269557,0.9946464343649388
2.3780396339939003,1.0381586156321887
2.3790396506608444,1.075340321925045
2.380039667327789,1.1056429453451366
2.3810396839947336,1.1286230878745884
2.382039700661678,1.1439312175594833
2.3830397173286224,1.1513155200882017
2.384039733995567,1.1506301954799072
2.385039750662511,1.1418356243497882
2.3860397673294558,1.1249983679090847
2.3870397839964,1.1002911679650589
2.3880398006633445,1.0679929469210099
2.389039817330289,1.028488807776252
2.3900398339972333,0.982270034126188
2.391039850664178,0.9299350386742976
2.3920398673311225,0.8722005152678176
2.3930398839980667,0.8098976874255325
2.3940399006650113,0.7439641249380848
2.395039917331956,0.6754435781920677
2.3960399339989,0.6054859781701354
2.3970399506658446,0.5353073339659401
2.3980399673327892,0.46544586074521244
2.3990399839997334,0.3963788489056305
2.400040000666678,0.328678504679751
2.4010400173336226,0.2628663580271425
2.4020400340005668,0.19940701034194036
2.4030400506675114,0.13871021802097547
2.404040067334456,0.0811354955874926
2.4050400840014,0.02699219045933059
2.4060401006683447,-0.023460567798509874
2.4070401173352893,-0.07001381321001474
2.4080401340022335,-0.11250872752931873
2.409040150669178,-0.15083664029420246
2.4100401673361227,-0.18493902897799908
2.411040184003067,-0.2148057297203746
2.4120402006700115,-0.2404536436989064
2.4130402173369556,-0.26193376606779056
2.4140402340039,-0.2793469147586601
2.415040250670845,-0.29284405543334746
2.416040267337789,-0.30262630148384767
2.4170402840047336,-0.3089448529171291
2.418040300671678,-0.3117950040863721
2.4190403173386223,-0.3112413745746092
2.420040334005567,-0.3076364837159124
2.4210403506725116,-0.3013170379548883
2.4220403673394557,-0.2926500698920557
2.4230403840064003,-0.2820178537109193
2.424040400673345,-0.2697837112605628
2.425040417340289,-0.2562912984722821
2.4260404340072337,-0.2418646053596078
2.4270404506741783,-0.2268079560182707
2.4280404673411224,-0.2114060086262254
2.429040484008067,-0.19592375544363758
2.4300405006750116,-0.18060652281290893
2.431040517341956,-0.16567638903838877
2.4320405340089004,-0.15128902591682417
2.433040550675845,-0.13754767217723404
2.434040567342789,-0.12453522419310213
2.4350405840097338,-0.112314912420147
2.436040600676678,-0.10093030139628754
2.4370406173436225,-0.09040528974166562
2.438040634010567,-0.08074411015863718
2.4390406506775113,-0.07193132943178816
2.440040667344456,-0.06393184842790851
2.4410406840114005,-0.056692215547155575
2.4420407006783447,-0.05015125921621847
2.4430407173452893,-0.04415725002652847
2.444040734012234,-0.03863427742125539
2.445040750679178,-0.03354726061244575
2.4460407673461226,-0.028862154738876707
2.4470407840130672,-0.024545950866064377
2.4480408006800114,-0.02056667598625131
2.449040817346956,-0.016893393018415054
2.4500408340139006,-0.01349620080826459
2.4510408506808448,-0.010346536895199997
2.4520408673477894,-0.007420870391926492
2.453040884014734,-0.004699529810163311
2.454040900681678,-0.0021639390233622515
2.4550409173486227,0.0002034421682888353
2.4560409340155673,0.002419118037872505
2.4570409506825115,0.0044985569317375915
2.458040967349456,0.006456191269500748
2.4590409840164007,0.00830541754404354
2.460041000683345,0.010058596321517274
2.4610410173502895,0.011727949539529204
2.4620410340172336,0.013336572473535584
2.4630410506841782,0.014914973495867666
2.464041067351123,0.01649280463792454
2.465041084018067,0.01809868200437154
2.4660411006850116,0.01976018577314198
2.467041117351956,0.021503860195434533
2.4680411340189004,0.023355213595716982
2.469041150685845,0.0253387183717236
2.4700411673527896,0.027477810994456755
2.4710411840197337,0.029792969022268207
2.4720412006866783,0.032277965692248896
2.473041217353623,0.03490725542537945
2.474041234020567,0.03765386434343261
2.4750412506875117,0.04048978264144556
2.4760412673544563,0.04338596458772587
2.4770412840214004,0.046312328523846695
2.478041300688345,0.0492377568646505
2.4790413173552897,0.052130096098242595
2.480041334022234,0.054956156785999494
2.4810413506891784,0.0576852181438058
2.482041367356123,0.060332571129938985
2.483041384023067,0.06294611482185693
2.484041400690012,0.06557344137752961
2.4850414173569564,0.06826110702819381
2.4860414340239005,0.07105463207835415
2.487041450690845,0.07399850090577842
2.4880414673577893,0.0771361619615064
2.489041484024734,0.08051002776984273
2.4900415006916785,0.08416147492836179
2.4910415173586227,0.08812690952803527
2.4920415340255673,0.09238857847739144
2.493041550692512,0.0968895529761187
2.494041567359456,0.10158027494449111
2.4950415840264006,0.1064643040891874
2.4960416006933452,0.11150571411780073
2.4970416173602894,0.11665905755432955
2.498041634027234,0.12187877374557478
2.4990416506941786,0.12711918886113208
2.5000416673611228,0.13233451589340425
2.5010416840280674,0.13748162164192046
2.502041700695012,0.14255483328951574
2.503041717361956,0.14757544796474587
2.5040417340289007,0.15256524776597832
2.5050417506958453,0.15754590984875505
2.5060417673627895,0.16253904731002414
2.507041784029734,0.16756617820600186
2.5080418006966787,0.17264870744458566
2.509041817363623,0.1778079267564713
2.5100418340305675,0.18306501469515765
2.5110418506975116,0.18843941227494804
2.5120418673644562,0.193928262670111
2.513041884031401,0.19951254157154502
2.514041900698345,0.20517275354761877
2.5150419173652896,0.21088928998949405
2.516041934032234,0.21664242911114118
2.5170419506991784,0.22241233594932794
2.518041967366123,0.22817906236362615
2.5190419840330676,0.23392254703640009
2.5200420007000117,0.2396226154728225
2.5210420173669563,0.24525967985029523
2.522042034033901,0.250823652503548
2.523042050700845,0.25631131707755017
2.5240420673677897,0.2617195012420611
2.5250420840347343,0.2670449194896386
2.5260421007016785,0.2722841731356435
2.527042117368623,0.27743375031822953
2.5280421340355677,0.2824900259983594
2.529042150702512,0.2874492619597929
2.5300421673694564,0.292307606809094
2.531042184036401,0.2970622220479853
2.532042200703345,0.3017257135174205
2.53304221737029,0.3063219219509258
2.5340422340372344,0.3108748327305786
2.5350422507041785,0.3154083180612493
2.536042267371123,0.3199461369706168
2.5370422840380673,0.3245119353091578
2.538042300705012,0.3291292457501521
2.5390423173719565,0.33382148778967347
2.5400423340389007,0.338611967746603
2.5410423507058453,0.3435213782231788
2.54204236737279,0.34853649996127084
2.543042384039734,0.3536284965182624
2.5440424007066786,0.35875982693579067
2.5450424173736232,0.36388997526844125
2.5460424340405674,0.3689786555834869
2.547042450707512,0.3739858119608799
2.5480424673744566,0.3788716184932642
2.5490424840414008,0.38359647928596696
2.5500425007083454,0.3881210284570021
2.55104251737529,0.3924077823512221
2.552042534042234,0.3964425794987762
2.5530425507091787,0.4002284664778647
2.5540425673761233,0.40376911288744977
2.5550425840430675,0.407068418339174
2.556042600710012,0.41013051245737153
2.5570426173769567,0.41295975487905884
2.558042634043901,0.4155607352539399
2.5590426507108455,0.41793827324439997
2.5600426673777896,0.42009741852551397
2.5610426840447342,0.42204341029812387
2.562042700711679,0.4237811486173031
2.563042717378623,0.42531534342872784
2.5640427340455676,0.4266509248751143
2.565042750712512,0.4277930531118657
2.5660427673794564,0.42874711830707063
2.567042784046401,0.42951874064150314
2.5680428007133456,0.4301137703086208
2.5690428173802897,0.4305382875145694
2.5700428340472343,0.43079860247817825
2.571042850714179,0.43090108439173436
2.572042867381123,0.4308499139969506
2.5730428840480677,0.4306477097883488
2.5740429007150123,0.430297278010495
2.5750429173819565,0.4298016549206401
2.576042934048901,0.4291641067887212
2.5770429507158457,0.42838812989736047
2.57804296738279,0.42747745054186503
2.5790429840497344,0.4264360250302279
2.580043000716679,0.4252680396831283
2.581043017383623,0.42397670320669334
2.582043034050568,0.4225482789056912
2.5830430507175124,0.4209564813770448
2.5840430673844565,0.41917495111479586
2.585043084051401,0.41717755862566785
2.5860431007183453,0.41493840442907115
2.58704311738529,0.4124318190571002
2.5880431340522345,0.40963236305453804
2.5890431507191787,0.4065148269788503
2.5900431673861233,0.40305423140018865
2.591043184053068,0.3992285538160881
2.592043200720012,0.39505501225625655
2.5930432173869566,0.3905801941267376
2.5940432340539012,0.3858516167050057
2.5950432507208454,0.38091702728121796
2.59604326738779,0.3758244031582231
2.5970432840547346,0.3706219516515497
2.5980433007216788,0.3653581100894134
2.5990433173886234,0.3600815458127139
2.600043334055568,0.3548406994485714
2.601043350722512,0.34966937648677104
2.6020433673894567,0.3445645563758545
2.6030433840564013,0.33949557122214324
2.6040434007233455,0.33443083181186894
2.60504341739029,0.32933863203343466
2.6060434340572347,0.324187139014954
2.607043450724179,0.3189443976561455
2.6080434673911235,0.31357833694755594
2.609043484058068,0.3080567701406266
2.6100435007250122,0.30234739949439066
2.611043517391957,0.29642075139099655
2.612043534058901,0.2902896863703691
2.6130435507258456,0.2839989089952676
2.61404356739279,0.27759378970709575
2.6150435840597344,0.2711195831189083
2.616043600726679,0.2646214280154221
2.6170436173936236,0.25814434735299835
2.6180436340605677,0.2517332482596553
2.6190436507275123,0.24543292203506234
2.620043667394457,0.23928804415054994
2.621043684061401,0.2333401581909618
2.6220437007283457,0.22758677925443344
2.6230437173952903,0.22199211413330558
2.6240437340622345,0.21651943455549608
2.625043750729179,0.21113189642056784
2.6260437673961237,0.20579253979974002
2.627043784063068,0.2004642889358839
2.6280438007300124,0.1951099522435307
2.629043817396957,0.1896922223088581
2.630043834063901,0.18417367588969968
2.631043850730846,0.17851896206924603
2.6320438673977904,0.17272466095123803
2.6330438840647346,0.16681155613668328
2.634043900731679,0.16080092106687488
2.6350439173986233,0.1547139133547566
2.636043934065568,0.14857157478493366
2.6370439507325125,0.1423948313136575
2.6380439673994567,0.13620449306883495
2.6390439840664013,0.13002125435002454
2.640044000733346,0.12386569362844575
2.64104401740029,0.11775895812603812
2.6420440340672346,0.11173216465925144
2.6430440507341793,0.10582399801701431
2.6440440674011234,0.10007322024909228
2.645044084068068,0.09451847757689716
2.6460441007350126,0.08919830039349642
2.6470441174019568,0.0841511032636092
2.6480441340689014,0.07941518492361434
2.649044150735846,0.0750287282815386
2.65004416740279,0.07102980041706355
2.6510441840697347,0.06745175139896277
2.6520442007366793,0.0642596273850701
2.6530442174036235,0.06136620252173737
2.654044234070568,0.058682812704655446
2.6550442507375127,0.056120678001164145
2.656044267404457,0.05359318760755989
2.6570442840714015,0.05101954622396285
2.658044300738346,0.04830945851296984
2.6590443174052902,0.045371614294406205
2.660044334072235,0.04211471353647536
2.661044350739179,0.03845368000635985
2.6620443674061236,0.034396079384776096
2.663044384073068,0.030020620668378534
2.6640444007400124,0.025407842717558
2.665044417406957,0.020638294541070912
2.6660444340739016,0.015792535296049025
2.6670444507408457,0.010951134287994387
2.6680444674077903,0.00619467097078525
2.669044484074735,0.0016037349466682584
2.670044500741679,-0.0027410740337388178
2.6710445174086237,-0.006762941089197839
2.6720445340755683,-0.010441953554975741
2.6730445507425125,-0.013802065249867712
2.674044567409457,-0.016868352286574517
2.6750445840764017,-0.019665880629426452
2.676044600743346,-0.02221970609437826
2.6770446174102904,-0.024554874349015657
2.678044634077235,-0.026696420912551495
2.679044650744179,-0.028669371155827413
2.680044667411124,-0.03049874030131034
2.6810446840780684,-0.0322088434564856
2.6820447007450126,-0.03381357664638654
2.683044717411957,-0.035318769238370865
2.6840447340789018,-0.036730030670564226
2.685044750745846,-0.038052960232723206
2.6860447674127905,-0.03929314706623058
2.6870447840797347,-0.040456170164098665
2.6880448007466793,-0.04154759837096529
2.689044817413624,-0.042572990383098336
2.690044834080568,-0.04353789474839303
2.6910448507475127,-0.044448219756936004
2.6920448674144573,-0.04531547716368723
2.6930448840814014,-0.04615553068627957
2.694044900748346,-0.0469843484813083
2.6950449174152906,-0.047817888556996355
2.696044934082235,-0.04867209877319498
2.6970449507491794,-0.049562916841381324
2.698044967416124,-0.050506270324662816
2.699044984083068,-0.051518076637773844
2.7000450007500127,-0.052614243047077285
2.7010450174169574,-0.05380922969608204
2.7020450340839015,-0.055095547668408434
2.703045050750846,-0.05644858268050506
2.7040450674177907,-0.05784325674725123
2.705045084084735,-0.059254482820830116
2.7060451007516795,-0.060657184766917845
2.707045117418624,-0.06202629539797301
2.7080451340855682,-0.06333673806923353
2.709045150752513,-0.06456342598756346
2.710045167419457,-0.06568126221145584
2.7110451840864016,-0.06666647460751353
2.712045200753346,-0.06751578475663472
2.7130452174202904,-0.06824196299141777
2.714045234087235,-0.06885819878781242
2.7150452507541796,-0.06937767147339655
2.7160452674211237,-0.06981355022737575
2.7170452840880683,-0.07017899408058337
2.718045300755013,-0.07048715191548116
2.719045317421957,-0.0707511624661586
2.7200453340889017,-0.07098415431833321
2.7210453507558463,-0.07119899398645313
2.7220453674227905,-0.07140464519353101
2.723045384089735,-0.0716070006996679
2.7240454007566797,-0.07181186057936755
2.725045417423624,-0.0720250147587615
2.7260454340905684,-0.07225224301560947
2.727045450757513,-0.07249931497929893
2.728045467424457,-0.0727719901308453
2.729045484091402,-0.07307601780289215
2.7300455007583464,-0.07341713717971075
2.7310455174252906,-0.07380020318251865
2.732045534092235,-0.07421647245796957
2.7330455507591798,-0.07464646485901608
2.734045567426124,-0.07507039832186536
2.7350455840930685,-0.07546848063435348
2.7360456007600127,-0.07582090943594351
2.7370456174269573,-0.07610787221772669
2.738045634093902,-0.07630954632242251
2.739045650760846,-0.07640609894437811
2.7400456674277907,-0.07637768712956863
2.7410456840947353,-0.07620579963937875
2.7420457007616794,-0.07589269816482104
2.743045717428624,-0.07545418436631675
2.7440457340955686,-0.07490768144466897
2.745045750762513,-0.07427141157790243
2.7460457674294574,-0.07356352308694494
2.747045784096402,-0.07280209043562984
2.748045800763346,-0.07200511423069428
2.7490458174302908,-0.07119052122177989
2.7500458340972354,-0.07037616430143262
2.7510458507641795,-0.06957945672825158
2.752045867431124,-0.06881198279520995
2.7530458840980687,-0.06808067383411193
2.754045900765013,-0.06739226060288633
2.7550459174319575,-0.06675340000236649
2.756045934098902,-0.0661706750762894
2.7570459507658462,-0.06565059501129716
2.758045967432791,-0.06519959513693581
2.7590459840997354,-0.06482403692565568
2.7600460007666796,-0.06453020799281114
2.761046017433624,-0.06432310563280173
2.7620460341005684,-0.06418839717442201
2.763046050767513,-0.0640962943211335
2.7640460674344576,-0.06401650560238982
2.7650460841014017,-0.06391866569054906
2.7660461007683463,-0.06377233540087311
2.767046117435291,-0.06354700169152892
2.768046134102235,-0.06321207766358677
2.7690461507691797,-0.06273690256102218
2.7700461674361243,-0.062090741770714365
2.7710461841030685,-0.06124480163095152
2.772046200770013,-0.06020230250961051
2.7730462174369577,-0.0589921238462815
2.774046234103902,-0.05764379560083037
2.7750462507708464,-0.05618677387602773
2.776046267437791,-0.0546504409175478
2.777046284104735,-0.053064105113970986
2.77804630077168,-0.05145700099677978
2.7790463174386244,-0.04985828924036196
2.7800463341055686,-0.04829705666200908
2.781046350772513,-0.04680036186544007
2.7820463674394578,-0.04536387439616313
2.783046384106402,-0.04395797759412605
2.7840464007733465,-0.042552265163428374
2.7850464174402907,-0.0411162569510762
2.7860464341072353,-0.039619398946977816
2.78704645077418,-0.03803106328394641
2.788046467441124,-0.03632054823769833
2.7890464841080687,-0.0344570782268578
2.7900465007750133,-0.03240980381294981
2.7910465174419574,-0.030149165267302526
2.792046534108902,-0.027667511553307232
2.7930465507758466,-0.024974886073088856
2.794046567442791,-0.02208176710145111
2.7950465841097354,-0.01899855905610265
2.79604660077668,-0.015735520515662384
2.797046617443624,-0.012304337887529077
2.7980466341105688,-0.00872013941372524
2.7990466507775134,-0.004998704335235922
2.8000466674444575,-0.0011561883445227947
2.801046684111402,0.002791520779054686
2.8020467007783467,0.006838610568498212
2.803046717445291,0.010987373486463715
2.8040467341122355,0.0152399704335377
2.80504675077918,0.019598186448482564
2.8060467674461242,0.024063457292579526
2.807046784113069,0.028636880252980154
2.8080468007800135,0.03331917899186825
2.8090468174469576,0.03811070071994335
2.810046834113902,0.04301141516022027
2.8110468507808464,0.048020665648556234
2.812046867447791,0.05313351892867413
2.8130468841147356,0.058341493570756825
2.8140469007816797,0.06363563934444808
2.8150469174486243,0.06900662956791152
2.816046934115569,0.07444476110783313
2.817046950782513,0.07993995437942343
2.8180469674494577,0.08548175334640758
2.8190469841164023,0.09105932552104072
2.8200470007833465,0.09666146196409746
2.821047017450291,0.10227666285696584
2.8220470341172357,0.10789445707504755
2.82304705078418,0.11350514629561782
2.8240470674511244,0.11909868948890862
2.825047084118069,0.12466466917367676
2.826047100785013,0.13019229141719374
2.827047117451958,0.1356703858352605
2.8280471341189024,0.1410874055921977
2.8290471507858466,0.1464314274008511
2.830047167452791,0.15169015152258108
2.8310471841197358,0.1568510440604538
2.83204720078668,0.1619035456422957
2.8330472174536245,0.1668386508606485
2.834047234120569,0.17164703501213852
2.8350472507875133,0.1763189969419205
2.836047267454458,0.18084445904366947
2.837047284121402,0.18521296725958453
2.8380473007883467,0.18941369108038084
2.8390473174552913,0.19343542354530174
2.8400473341222354,0.19726658124211122
2.84104735078918,0.20089491677887156
2.8420473674561246,0.20430302633343905
2.843047384123069,0.2074698981614528
2.8440474007900134,0.21039208994829897
2.845047417456958,0.21306427285255955
2.846047434123902,0.2154763353564876
2.8470474507908468,0.21761888260817402
2.8480474674577914,0.21948323642154438
2.8490474841247355,0.22106143527635827
2.85004750079168,0.22234623431820935
2.8510475174586247,0.22333106784232526
2.852047534125569,0.22400945925444044
2.8530475507925135,0.2243751292640818
2.854047567459458,0.22442249961225064
2.8550475841264022,0.22414670870578327
2.856047600793347,0.22354361161735128
2.8570476174602915,0.22260978008546004
2.8580476341272356,0.2213425025144516
2.85904765079418,0.21973978397450125
2.8600476674611244,0.21780034620161956
2.861047684128069,0.21552481339682256
2.8620477007950136,0.21293448540831522
2.8630477174619577,0.21006796177730497
2.8640477341289023,0.20696506204341517
2.865047750795847,0.2036663224121027
2.866047767462791,0.2002129957546637
2.8670477841297357,0.1966470516082248
2.8680478007966803,0.1930111761757484
2.8690478174636245,0.18934877232603067
2.870047834130569,0.1857039595937079
2.8710478507975137,0.18211800968381722
2.872047867464458,0.17857254032239508
2.8730478841314024,0.1749995290929379
2.874047900798347,0.1713301291913596
2.875047917465291,0.16749621047940474
2.876047934132236,0.16343035948465248
2.8770479507991804,0.15906587940051495
2.8780479674661246,0.1543367900862469
2.879047984133069,0.14917782806693006
2.8800480008000138,0.14352444653348448
2.881048017466958,0.13731836948489748
2.8820480341339025,0.130578518517692
2.883048050800847,0.12339701073389774
2.8840480674677913,0.11589013318760157
2.885048084134736,0.10817334502915198
2.88604810080168,0.10036119233628117
2.8870481174686247,0.09256730811408546
2.8880481341355693,0.08490441229503715
2.8890481508025134,0.07748431173897882
2.890048167469458,0.07041790023313492
2.8910481841364026,0.06381081397879937
2.892048200803347,0.05769327041292335
2.8930482174702914,0.052031936343651206
2.894048234137236,0.046790617043955776
2.89504825080418,0.041932204714175414
2.8960482674711248,0.037418678482024695
2.8970482841380694,0.033211104402588544
2.8980483008050135,0.02926963545833174
2.899048317471958,0.02555351155908551
2.9000483341389027,0.022021059542055944
2.901048350805847,0.01863001643729138
2.9020483674727915,0.015342784834990294
2.903048384139736,0.012125562715820631
2.9040484008066803,0.008943782648936643
2.905048417473625,0.005761964038642856
2.9060484341405695,0.0025436953053522057
2.9070484508075136,-0.00074838738889846
2.908048467474458,-0.004152566138468997
2.909048484141403,-0.007708036110347712
2.910048500808347,-0.011454905544144658
2.9110485174752916,-0.015431263791377391
2.9120485341422357,-0.019625197382454905
2.9130485508091803,-0.023982562902030557
2.914048567476125,-0.02844876600683952
2.915048584143069,-0.03297012542624793
2.9160486008100137,-0.03749387296224748
2.9170486174769583,-0.04196815348945709
2.9180486341439025,-0.04634202495512153
2.919048650810847,-0.050563599396970006
2.9200486674777917,-0.054470769211115475
2.921048684144736,-0.058025728050018786
2.9220487008116804,-0.06132678023125135
2.923048717478625,-0.06450187189805554
2.924048734145569,-0.06766902448564265
2.925048750812514,-0.07093503214323736
2.9260487674794584,-0.07439546173407087
2.9270487841464026,-0.07813465283539096
2.928048800813347,-0.08222571773845425
2.9290488174802918,-0.08673054144853193
2.930048834147236,-0.09169978168489941
2.9310488508141805,-0.09717263247547303
2.932048867481125,-0.10317290312034627
2.9330488841480693,-0.10970962509683324
2.934048900815014,-0.11678048852016175
2.935048917481958,-0.12437195621958198
2.9360489341489027,-0.13245926373835204
2.9370489508158473,-0.14100641933374522
2.9380489674827914,-0.1499662039770343
2.939048984149736,-0.15928017135351522
2.9400490008166806,-0.1688786478624916
2.941049017483625,-0.17867907245524908
2.9420490341505694,-0.18855827581928256
2.943049050817514,-0.19835667072671648
2.944049067484458,-0.20790262679674085
2.9450490841514028,-0.2170132863625557
2.9460491008183474,-0.22549456447137617
2.9470491174852915,-0.23331187697793415
2.948049134152236,-0.2404170008248923
2.9490491508191807,-0.24634090443848317
2.950049167486125,-0.25063961742535895
2.9510491841530695,-0.2529047231685033
2.952049200820014,-0.2527830702343669
2.9530492174869583,-0.2499738642944715
2.954049234153903,-0.24421127907836165
2.9550492508208475,-0.2352638695078859
2.9560492674877916,-0.22293457169718234
2.9570492841547362,-0.20706070295268725
2.958049300821681,-0.18751396177312418
2.959049317488625,-0.16420042784953845
2.9600493341555696,-0.13706056206524828
2.9610493508225137,-0.10607053117380476
2.9620493674894584,-0.07126462638623915
2.963049384156403,-0.03273203750561718
2.964049400823347,0.009402989283604075
2.9650494174902917,0.05498182660465574
2.9660494341572363,0.10381146588849757
2.9670494508241805,0.15566451737372608
2.968049467491125,0.2102792101067051
2.9690494841580697,0.267359391941482
2.970049500825014,0.3265745295398344
2.9710495174919584,0.38756264803571067
2.972049534158903,0.44998041817483514
2.973049550825847,0.5134961320181657
2.974049567492792,0.5777839939130316
2.9750495841597364,0.6423257534979162
2.9760496008266806,0.7059577651811703
2.977049617493625,0.7675505493018979
2.97804963416057,0.8260781125295723
2.979049650827514,0.880617947863926
2.9800496674944585,0.9303510346351129
2.981049684161403,0.9745602062474126
2.9820497008283473,1.0126021504671778
2.983049717495292,1.043911233620409
2.9840497341622365,1.0680244455275552
2.9850497508291807,1.0845822623393864
2.9860497674961253,1.0933286465370136
2.9870497841630694,1.094111046931879
2.988049800830014,1.0868803986657776
2.9890498174969586,1.0716911232108397
2.990049834163903,1.0487011283695218
2.9910498508308474,1.0181711024801305
2.992049867497792,0.9804523248957494
2.993049884164736,0.935986717293725
2.9940499008316808,0.8852464418590722
2.9950499174986254,0.8291110675303124
2.9960499341655695,0.7685882581531946
2.997049950832514,0.7046265824126227
2.9980499674994587,0.6381155138326048
2.999049984166403,0.5698854307763729
3.0000500008333475,0.5007076164462033
3.001050017500292,0.4312959672750619
