Time,Amplitude
0.0,0.06347918914403353
0.0010000166669444492,0.10427210358459366
0.0020000333338888983,0.04575334805229951
0.0030000500008333475,0.12270796164703959
0.004000066667777797,0.09065470790272119
0.005000083334722245,0.06043354427633993
0.006000100001666695,0.04098217029019254
0.0070001166686111446,0.07886746517718324
0.008000133335555593,0.07985153001531903
0.009000150002500042,0.11088049951503709
0.01000016666944449,0.058020862055569083
0.011000183336388941,0.030648647401206687
0.01200020000333339,0.08631848641522975
0.013000216670277839,0.09216379427529296
0.014000233337222289,0.05926948240165184
0.015000250004166738,0.0913550413208396
0.016000266671111187,0.030535563272773864
0.017000283338055637,0.06262457110048693
0.018000300005000084,0.045405515826083154
0.019000316671944534,0.12315297551392243
0.02000033333888898,0.0678555097737262
0.021000350005833432,0.1353722183754751
0.022000366672777882,0.04835435041894581
0.02300038333972233,0.05649392865031323
0.02400040000666678,0.06523951271042716
0.02500041667361123,0.06153853754122529
0.026000433340555677,0.02056623876380776
0.027000450007500128,0.12070100268042211
0.028000466674444578,0.12855293254209998
0.029000483341389025,0.042174009007791995
0.030000500008333476,0.1078010499319324
0.031000516675277923,0.07530958669325709
0.03200053334222237,0.05231805327462167
0.033000550009166824,0.10447531897565188
0.034000566676111274,0.10216758808901226
0.03500058334305572,0.12189810908725109
0.03600060001000017,0.08811754666031979
0.03700061667694462,0.08485624015853908
0.03800063334388907,0.0840993307787964
0.03900065001083352,0.09892885539069309
0.04000066667777796,0.06740915781091283
0.04100068334472241,0.09905954795058022
0.042000700011666864,0.05667010440802422
0.043000716678611314,0.08580421771417199
0.044000733345555765,0.061774267137953545
0.045000750012500215,0.06035075499365618
0.04600076667944466,0.10364022312291399
0.04700078334638911,0.057815637663977085
0.04800080001333356,0.0394067154862681
0.04900081668027801,0.059236938525405416
0.05000083334722246,0.09122258558810181
0.051000850014166904,0.09730815021222743
0.052000866681111355,0.10245879594200737
0.053000883348055805,0.0683994887763055
0.054000900015000255,0.07305051958396172
0.055000916681944706,0.13934316790142048
0.056000933348889156,0.11054753718764443
0.0570009500158336,0.06234034379873962
0.05800096668277805,0.08409930376857945
0.0590009833497225,0.06831394471103906
0.06000100001666695,0.057354536997770066
0.0610010166836114,0.07256316788355735
0.062001033350555845,0.06488665101866567
0.0630010500175003,0.0762774119956256
0.06400106668444475,0.07410460398070308
0.0650010833513892,0.023200532268271075
0.06600110001833365,0.09855445512243803
0.0670011166852781,0.08000585362209328
0.06800113335222255,0.07220492682105716
0.069001150019167,0.09651595273843437
0.07000116668611144,0.08876902268623289
0.07100118335305589,0.0772668212130617
0.07200120002000034,0.06301254594398636
0.07300121668694479,0.02916248871416843
0.07400123335388924,0.09952118044989308
0.07500125002083369,0.12119273533503579
0.07600126668777814,0.11210106238858564
0.07700128335472259,0.09826567137796964
0.07800130002166704,0.09671340390616505
0.07900131668861149,0.03489442470552288
0.08000133335555593,0.12150791921159196
0.08100135002250038,0.14065414534836362
0.08200136668944483,0.0385596562439927
0.08300138335638928,0.06760428714175677
0.08400140002333373,0.0617895766941635
0.08500141669027818,0.07730818087783028
0.08600143335722263,0.06962918399072358
0.08700145002416708,0.1100735573926599
0.08800146669111153,0.10675635526016786
0.08900148335805598,0.050051784320879734
0.09000150002500043,0.05506162496195144
0.09100151669194487,0.10003190059958533
0.09200153335888932,0.0990268777071408
0.09300155002583377,0.08405612022074498
0.09400156669277822,0.06351522572354981
0.09500158335972267,0.06988425321191333
0.09600160002666712,0.11016739786114722
0.09700161669361157,0.09042830019965727
0.09800163336055602,0.11518442931512672
0.09900165002750047,0.07796937962993813
0.10000166669444492,0.07875806953563451
0.10100168336138937,0.07065270940891423
0.10200170002833381,0.08069584820412344
0.10300171669527826,0.1211344309633804
0.10400173336222271,0.1334386547561982
0.10500175002916716,0.029917162511213763
0.10600176669611161,0.09912149785867949
0.10700178336305606,0.07190880578814378
0.10800180003000051,0.11001822943870333
0.10900181669694496,0.07642171835804744
0.11000183336388941,0.09662152789020306
0.11100185003083386,0.05219392722487888
0.11200186669777831,0.07678801858716365
0.11300188336472275,0.09409949003794917
0.1140019000316672,0.09713641185407319
0.11500191669861165,0.06952251392458779
0.1160019333655561,0.03322652131812513
0.11700195003250055,0.10371949900695923
0.118001966699445,0.06663940472266901
0.11900198336638945,0.07180532130905216
0.1200020000333339,0.1195653635315902
0.12100201670027835,0.08190671617008634
0.1220020333672228,0.06753901301415355
0.12300205003416724,0.12337562532326878
0.12400206670111169,0.10886797492388721
0.12500208336805615,0.038400059179705
0.1260021000350006,0.05006487099928918
0.12700211670194506,0.02807714925062141
0.1280021333688895,0.06766707572784283
0.12900215003583393,0.060339935002497985
0.1300021667027784,0.03489997643501827
0.13100218336972283,0.12634452258264703
0.1320022000366673,0.05883598203479955
0.13300221670361173,0.05273434559641597
0.1340022333705562,0.12404130042893631
0.13500225003750063,0.07980472096238786
0.1360022667044451,0.0515872194323969
0.13700228337138953,0.05378629144587048
0.138002300038334,0.11869730771876469
0.13900231670527843,0.0972636216642274
0.14000233337222287,0.094884522974973
0.14100235003916733,0.0188050647044938
0.14200236670611177,0.09349765859333754
0.14300238337305624,0.10708707460761606
0.14400240004000067,0.09021419777445294
0.14500241670694514,0.11910746150759537
0.14600243337388957,0.09227084772164307
0.14700245004083404,0.12353131203922015
0.14800246670777847,0.07503237892137817
0.14900248337472294,0.06817982988589623
0.15000250004166737,0.12113543894133058
0.1510025167086118,0.08508678031630444
0.15200253337555628,0.09638874400632402
0.1530025500425007,0.035969322699630414
0.15400256670944518,0.05521335073668214
0.1550025833763896,0.11228931658616301
0.15600260004333408,0.03371814936941457
0.15700261671027851,0.05299482248432891
0.15800263337722298,0.0899198652051249
0.15900265004416742,0.05340811997412238
0.16000266671111185,0.10330582505951792
0.16100268337805632,0.03539882487453418
0.16200270004500075,0.04071529225040219
0.16300271671194522,0.08668480834292468
0.16400273337888965,0.10064894474731535
0.16500275004583412,0.0789091581746862
0.16600276671277855,0.03775921704710669
0.16700278337972302,0.1264997922738791
0.16800280004666746,0.09682905859499966
0.16900281671361192,0.08129500303724173
0.17000283338055636,0.06764260149601749
0.1710028500475008,0.042866973410502024
0.17200286671444526,0.060299293138638944
0.1730028833813897,0.1255244925345938
0.17400290004833416,0.11468110982453253
0.1750029167152786,0.06636867420170722
0.17600293338222306,0.09925652119251507
0.1770029500491675,0.07524298714979503
0.17800296671611196,0.022115361688225216
0.1790029833830564,0.11438417849413696
0.18000300005000086,0.07687797527160457
0.1810030167169453,0.10583233951525468
0.18200303338388973,0.08878682573887654
0.1830030500508342,0.04483951793913805
0.18400306671777863,0.1001321059453355
0.1850030833847231,0.08824132805679472
0.18600310005166754,0.0358055957115237
0.187003116718612,0.060566467782306066
0.18800313338555644,0.034544856383779354
0.1890031500525009,0.06106145444832129
0.19000316671944534,0.1245723975159541
0.1910031833863898,0.0956303099143737
0.19200320005333424,0.048557461352816945
0.19300321672027868,0.08325606170952576
0.19400323338722314,0.046839587797260995
0.19500325005416758,0.0835654402156729
0.19600326672111204,0.12010220461805443
0.19700328338805648,0.09591076231261474
0.19800330005500094,0.10797266542940415
0.19900331672194538,0.0585915550063229
0.20000333338888984,0.07740270772471268
0.20100335005583428,0.09445583568361615
0.20200336672277874,0.04375111895005878
0.20300338338972318,0.08060944848973317
0.20400340005666762,0.12269052072151485
0.20500341672361208,0.03752479671745269
0.20600343339055652,0.08223189212196423
0.20700345005750098,0.042264412073881985
0.20800346672444542,0.021253146005196885
0.20900348339138988,0.08031379436205685
0.21000350005833432,0.027192221097250797
0.21100351672527878,0.056495577354108865
0.21200353339222322,0.0675851053784314
0.21300355005916768,0.07197695100073867
0.21400356672611212,0.12466212167461777
0.21500358339305656,0.10699676771933501
0.21600360006000102,0.04347569943094504
0.21700361672694546,0.09963756398024229
0.21800363339388992,0.043284502271147406
0.21900365006083436,0.09210388607379201
0.22000366672777882,0.057650222264878204
0.22100368339472326,0.1335841282072438
0.22200370006166772,0.0933002971199204
0.22300371672861216,0.09044752243771996
0.22400373339555663,0.07425686344343746
0.22500375006250106,0.08714841430802764
0.2260037667294455,0.048193428350614693
0.22700378339638996,0.01714416360729447
0.2280038000633344,0.08596159342510952
0.22900381673027886,0.049647694242020625
0.2300038333972233,0.10050907843662818
0.23100385006416777,0.12898340191438482
0.2320038667311122,0.09349970209528088
0.23300388339805667,0.12151350741568455
0.2340039000650011,0.08610477347874544
0.23500391673194554,0.07187674374162245
0.23600393339889,0.06819059740370816
0.23700395006583444,0.0443248942628504
0.2380039667327789,0.13573249087951186
0.23900398339972334,0.09936685409541088
0.2400040000666678,0.09602529267895045
0.24100401673361224,0.07752884756248127
0.2420040334005567,0.07338581748999955
0.24300405006750114,0.04020780162622188
0.2440040667344456,0.10637291446800248
0.24500408340139004,0.03665617450043024
0.24600410006833448,0.11932478036732452
0.24700411673527894,0.07695782844259601
0.24800413340222338,0.0597096329677797
0.24900415006916785,0.10692616256592898
0.2500041667361123,0.043285290141112404
0.25100418340305675,0.06806698148884296
0.2520042000700012,0.026659111158088028
0.2530042167369456,0.09395709488804255
0.2540042334038901,0.05550334401708634
0.25500425007083455,0.13711069263154546
0.256004266737779,0.040384641608934284
0.2570042834047234,0.02866405221761598
0.25800430007166786,0.025887960072961944
0.25900431673861235,0.11424552105002728
0.2600043334055568,0.05471677222747727
0.2610043500725012,0.06865449882817906
0.26200436673944566,0.12579613661582484
0.26300438340639015,0.05895217306555785
0.2640044000733346,0.03241934461406238
0.265004416740279,0.11062065763936475
0.26600443340722346,0.11220789498240007
0.2670044500741679,0.13531437742560992
0.2680044667411124,0.0882059407832298
0.2690044834080568,0.02776082574712274
0.27000450007500126,0.02638624678765075
0.2710045167419457,0.06597781461656897
0.2720045334088902,0.03136602938668623
0.27300455007583463,0.10734239993416209
0.27400456674277907,0.0957064923905367
0.2750045834097235,0.06357813207078657
0.276004600076668,0.05857318506498096
0.27700461674361243,0.0330926594554161
0.27800463341055687,0.1046370048264647
0.2790046500775013,0.09360574584113235
0.28000466674444574,0.08267657536931372
0.28100468341139023,0.041250145389789425
0.28200470007833467,0.08740505564713719
0.2830047167452791,0.12224719548476423
0.28400473341222354,0.12785494511046674
0.28500475007916803,0.0773313890398571
0.28600476674611247,0.11801544223596092
0.2870047834130569,0.032985831372447906
0.28800480008000134,0.04907763195002953
0.2890048167469458,0.1005289206688747
0.2900048334138903,0.0650135953103071
0.2910048500808347,0.0798863622424092
0.29200486674777915,0.06366110665509182
0.2930048834147236,0.1248450334936342
0.2940049000816681,0.050526066902704794
0.2950049167486125,0.02795813149724917
0.29600493341555695,0.1232465969139426
0.2970049500825014,0.0650877839284835
0.2980049667494459,0.05864796150530004
0.2990049834163903,0.06809307209626629
0.30000500008333475,0.09548176967388501
0.3010050167502792,0.0764419649631146
0.3020050334172236,0.07469055024350899
0.3030050500841681,0.12716309496915015
0.30400506675111255,0.04164958193816656
0.305005083418057,0.04679947995176052
0.3060051000850014,0.07792249107314816
0.3070051167519459,0.07168608487508997
0.30800513341889035,0.11290514744832614
0.3090051500858348,0.11861216855613
0.3100051667527792,0.1102507095943602
0.31100518341972366,0.07129396718080375
0.31200520008666816,0.10462567272535285
0.3130052167536126,0.07684104255074456
0.31400523342055703,0.07280068477479004
0.31500525008750146,0.04823230342322378
0.31600526675444596,0.08271749033915708
0.3170052834213904,0.05630913358153802
0.31800530008833483,0.11572006321344452
0.31900531675527927,0.06587994072084759
0.3200053334222237,0.10519430493868565
0.3210053500891682,0.11862128074763341
0.32200536675611263,0.0258625888176557
0.32300538342305707,0.034928867434850006
0.3240054000900015,0.10503827899532654
0.325005416756946,0.148959306037232
0.32600543342389043,0.03984225215028391
0.32700545009083487,0.11607987079631932
0.3280054667577793,0.056657451082491116
0.3290054834247238,0.0719852432815932
0.33000550009166824,0.0922191699107731
0.3310055167586127,0.09167817815132655
0.3320055334255571,0.10716336942405585
0.33300555009250155,0.09035059647459175
0.33400556675944604,0.10760816328072065
0.3350055834263905,0.12431456879477155
0.3360056000933349,0.03867243333215322
0.33700561676027935,0.10740037448258032
0.33800563342722384,0.10443516169626102
0.3390056500941683,0.09945397623534803
0.3400056667611127,0.0696798175029898
0.34100568342805715,0.025625478789666853
0.3420057000950016,0.09529443547793533
0.3430057167619461,0.08972286911669058
0.3440057334288905,0.07019146610501832
0.34500575009583495,0.09073670079069106
0.3460057667627794,0.14702037491866538
0.3470057834297239,0.02819208370090723
0.3480058000966683,0.061974652028701005
0.34900581676361275,0.024249791551749868
0.3500058334305572,0.06987097253567676
0.3510058500975017,0.10998944781284443
0.3520058667644461,0.04031375914357056
0.35300588343139055,0.04196871432495051
0.354005900098335,0.07629610861598977
0.35500591676527943,0.05451287588409817
0.3560059334322239,0.0824136069564884
0.35700595009916836,0.044844170343499044
0.3580059667661128,0.03082165510122241
0.35900598343305723,0.11312050752777757
0.3600060001000017,0.08729704576738698
0.36100601676694616,0.060146829564955484
0.3620060334338906,0.03600767096930211
0.36300605010083503,0.10364321259514611
0.36400606676777947,0.04300582930555265
0.36500608343472396,0.059925319158321534
0.3660061001016684,0.11624544617352023
0.36700611676861283,0.04484026837368547
0.36800613343555727,0.12471217385131231
0.36900615010250176,0.04677919104607206
0.3700061667694462,0.05713395352550968
0.37100618343639064,0.05092293495771077
0.37200620010333507,0.10103870522732643
0.37300621677027956,0.14629038591234167
0.374006233437224,0.10863736601964451
0.37500625010416844,0.11277438269119987
0.3760062667711129,0.12216842035185944
0.3770062834380573,0.10964202466162364
0.3780063001050018,0.07841864265807819
0.37900631677194624,0.12415086722525698
0.3800063334388907,0.08995943861864046
0.3810063501058351,0.09923977647135254
0.3820063667727796,0.08249564209755236
0.38300638343972404,0.050914304450204104
0.3840064001066685,0.058214195675881125
0.3850064167736129,0.08290951004838068
0.38600643344055735,0.04434397876597055
0.38700645010750184,0.09598156085796673
0.3880064667744463,0.1308241527527541
0.3890064834413907,0.08370219651522286
0.39000650010833515,0.11718278624714167
0.39100651677527964,0.021645832042265778
0.3920065334422241,0.12335549642032514
0.3930065501091685,0.11734481755393367
0.39400656677611295,0.03571303809035661
0.3950065834430574,0.04002246569640436
0.3960066001100019,0.07919574648353349
0.3970066167769463,0.033017754106782066
0.39800663344389076,0.06769926560219662
0.3990066501108352,0.09787158685607565
0.4000066667777797,0.11930852768146612
0.4010066834447241,0.06933879974152546
0.40200670011166856,0.08768989039718439
0.403006716778613,0.12216934963954881
0.4040067334455575,0.13203060878789813
0.4050067501125019,0.027175709309017554
0.40600676677944636,0.020638269183712463
0.4070067834463908,0.048808212882068304
0.40800680011333523,0.0564152624761189
0.4090068167802797,0.11091206594298006
0.41000683344722416,0.10040151101095061
0.4110068501141686,0.07072078324582046
0.41200686678111303,0.1074714686945583
0.4130068834480575,0.05311932010755741
0.41400690011500196,0.09844681493481741
0.4150069167819464,0.07532833921305913
0.41600693344889084,0.034836030291008124
0.4170069501158353,0.07454031425113344
0.41800696678277977,0.04890051021331413
0.4190069834497242,0.09143629094807816
0.42000700011666864,0.1115965736904152
0.4210070167836131,0.08330940513692688
0.42200703345055757,0.0515307984811601
0.423007050117502,0.08214780695836386
0.42400706678444644,0.043556345696785806
0.4250070834513909,0.07638854354129485
0.42600710011833537,0.09068535443192506
0.4270071167852798,0.11748710557120197
0.42800713345222424,0.11207901344314468
0.4290071501191687,0.09362941458090639
0.4300071667861131,0.09789699551337935
0.4310071834530576,0.09753134623612951
0.43200720012000204,0.09664795704617196
0.4330072167869465,0.08817012070349617
0.4340072334538909,0.05154807848009968
0.4350072501208354,0.04948299833487492
0.43600726678777985,0.05613476938450113
0.4370072834547243,0.05989651358077337
0.4380073001216687,0.090464726588928
0.43900731678861316,0.04718697034852683
0.44000733345555765,0.10711924128663303
0.4410073501225021,0.037065011984478057
0.4420073667894465,0.08216078249270507
0.44300738345639096,0.09123960303877877
0.44400740012333545,0.10362364110321187
0.4450074167902799,0.07121964591669705
0.4460074334572243,0.06512117859348475
0.44700745012416876,0.07366985204744264
0.44800746679111325,0.12802344327181978
0.4490074834580577,0.08170797072285149
0.4500075001250021,0.05893746441323229
0.45100751679194656,0.056425495417468524
0.452007533458891,0.05554283715771291
0.4530075501258355,0.09062493018004018
0.4540075667927799,0.11918701420443391
0.45500758345972436,0.06348846532003637
0.4560076001266688,0.05562636199123596
0.4570076167936133,0.08758924557880045
0.45800763346055773,0.05368083146168858
0.45900765012750216,0.11571702198773762
0.4600076667944466,0.06440213861192086
0.46100768346139104,0.09321522860269917
0.46200770012833553,0.0385617126179844
0.46300771679527997,0.1127507893914296
0.4640077334622244,0.06959030290154655
0.46500775012916884,0.07046093962651442
0.46600776679611333,0.024373458959350534
0.46700778346305777,0.12057312796858043
0.4680078001300022,0.028966932852539637
0.46900781679694664,0.10393191233888494
0.4700078334638911,0.11517317085727799
0.47100785013083557,0.05449686816705639
0.47200786679778,0.09318560504044694
0.47300788346472444,0.03911439443708955
0.4740079001316689,0.059333647035537
0.47500791679861337,0.08499061708246483
0.4760079334655578,0.06554825973235215
0.47700795013250225,0.14081790037055775
0.4780079667994467,0.04639517325005672
0.4790079834663912,0.09597868002969004
0.4800080001333356,0.0826489366336444
0.48100801680028005,0.09207998705124407
0.4820080334672245,0.10396886377790746
0.4830080501341689,0.07275766901078852
0.4840080668011134,0.052545197965694165
0.48500808346805785,0.04184243153229259
0.4860081001350023,0.04142491529628887
0.4870081168019467,0.04834498651990544
0.4880081334688912,0.06775527282851124
0.48900815013583565,0.15402973216998106
0.4900081668027801,0.039441554561892765
0.4910081834697245,0.11715756673797494
0.49200820013666896,0.06469515643530331
0.49300821680361345,0.1157591891697653
0.4940082334705579,0.09725275613805583
0.4950082501375023,0.050791466962994664
0.49600826680444676,0.09608699419100107
0.49700828347139125,0.11089295512810027
0.4980083001383357,0.026383355083304846
0.4990083168052801,0.10670835253528083
0.5000083334722246,0.08943167626906597
0.501008350139169,0.08415524137591567
0.5020083668061135,0.06549160217991601
0.5030083834730579,0.07724904076702092
0.5040084001400024,0.04711224550090844
0.5050084168069469,0.12672113350340197
0.5060084334738912,0.09087944162819987
0.5070084501408357,0.09763319237996346
0.5080084668077802,0.06940571688537217
0.5090084834747246,0.09243351088317477
0.5100085001416691,0.06109828954237756
0.5110085168086135,0.11916376827584893
0.512008533475558,0.10400323241663079
0.5130085501425025,0.1130529558328375
0.5140085668094468,0.09878173105977239
0.5150085834763913,0.08172450646968059
0.5160086001433357,0.06317977901092536
0.5170086168102802,0.059819041224066484
0.5180086334772247,0.08853257550617917
0.5190086501441691,0.04235898089797664
0.5200086668111136,0.11367215490051388
0.5210086834780581,0.09882074287548322
0.5220087001450024,0.040050329784629066
0.5230087168119469,0.11144187187162338
0.5240087334788913,0.09322007542823116
0.5250087501458358,0.12061189698031212
0.5260087668127803,0.03140068914953122
0.5270087834797247,0.10021153236835888
0.5280088001466692,0.12681723239414708
0.5290088168136136,0.07091873808193729
0.530008833480558,0.032907661870256066
0.5310088501475025,0.10191363873221164
0.5320088668144469,0.06153295678084614
0.5330088834813914,0.10375100148659791
0.5340089001483358,0.0492787922211286
0.5350089168152803,0.09290705611345106
0.5360089334822248,0.04268569971116457
0.5370089501491692,0.12229146498911629
0.5380089668161137,0.13302924438651986
0.5390089834830581,0.10312868259686128
0.5400090001500025,0.09551150350966128
0.541009016816947,0.08325774898572261
0.5420090334838914,0.10667149907720294
0.5430090501508359,0.12221758517751152
0.5440090668177804,0.10250550402493566
0.5450090834847248,0.10221275236063458
0.5460091001516693,0.07237228404491147
0.5470091168186136,0.044231451867002954
0.5480091334855581,0.12736308285299555
0.5490091501525026,0.025373849394601744
0.550009166819447,0.13458279067377596
0.5510091834863915,0.04521101416913795
0.552009200153336,0.08974265271312645
0.5530092168202804,0.10796979203269227
0.5540092334872249,0.09632201481758554
0.5550092501541692,0.05873291015159055
0.5560092668211137,0.07263392978170163
0.5570092834880582,0.10741321343117832
0.5580093001550026,0.07072839072956927
0.5590093168219471,0.12083687960150069
0.5600093334888915,0.10913722254767244
0.561009350155836,0.049112418902709024
0.5620093668227805,0.045750550031030256
0.5630093834897248,0.039730226618185954
0.5640094001566693,0.1354647336190817
0.5650094168236138,0.08781293546559968
0.5660094334905582,0.057457823594373174
0.5670094501575027,0.09404702569873162
0.5680094668244471,0.10546172660577596
0.5690094834913916,0.08006150472979866
0.5700095001583361,0.03830724830657282
0.5710095168252804,0.12020492588658839
0.5720095334922249,0.13507389274062206
0.5730095501591693,0.07308770734350663
0.5740095668261138,0.07339678602887537
0.5750095834930583,0.09855385885094622
0.5760096001600027,0.03846591226580619
0.5770096168269472,0.0301904308103337
0.5780096334938916,0.08287410880330424
0.579009650160836,0.06108988362611706
0.5800096668277805,0.055078650605206364
0.5810096834947249,0.0801875980817805
0.5820097001616694,0.10950265614246041
0.5830097168286139,0.09071326202213571
0.5840097334955583,0.1347220235823318
0.5850097501625028,0.1052651969473128
0.5860097668294472,0.07357263877109489
0.5870097834963917,0.04083242086242882
0.5880098001633361,0.05701033848271329
0.5890098168302805,0.13106531834903126
0.590009833497225,0.11619024771827541
0.5910098501641694,0.1091270229357928
0.5920098668311139,0.10735124487683495
0.5930098834980584,0.04835031859455295
0.5940099001650028,0.09934580048898413
0.5950099168319473,0.055723527706125514
0.5960099334988918,0.07169041165714256
0.5970099501658361,0.07388814835850022
0.5980099668327806,0.09471752862823
0.599009983499725,0.05415139723004507
0.6000100001666695,0.05675159509772685
0.601010016833614,0.05041205681486653
0.6020100335005584,0.11534186692316241
0.6030100501675029,0.07207929359142763
0.6040100668344472,0.05337298454296872
0.6050100835013917,0.08533030494204497
0.6060101001683362,0.05251914327740035
0.6070101168352806,0.07130956814767987
0.6080101335022251,0.0380819035338477
0.6090101501691695,0.030756998421332473
0.610010166836114,0.08915080701604233
0.6110101835030585,0.04768136253050348
0.6120102001700028,0.09598994280570794
0.6130102168369473,0.021812071214156036
0.6140102335038918,0.07829963255265306
0.6150102501708362,0.0746243741511209
0.6160102668377807,0.09099090119562026
0.6170102835047251,0.1067731835248587
0.6180103001716696,0.04471189761405713
0.6190103168386141,0.04495480328976694
0.6200103335055585,0.06323493804331995
0.621010350172503,0.06304021231278371
0.6220103668394473,0.049776962584662576
0.6230103835063918,0.05141935720021739
0.6240104001733363,0.11146971900736766
0.6250104168402807,0.10456824624656114
0.6260104335072252,0.047631954151141666
0.6270104501741697,0.039470243613310446
0.6280104668411141,0.07311786775004381
0.6290104835080585,0.11714604312921818
0.6300105001750029,0.0719943908324121
0.6310105168419474,0.046325894814929526
0.6320105335088919,0.07458253078667296
0.6330105501758363,0.10452649981789092
0.6340105668427808,0.10155313982322783
0.6350105835097252,0.07437767448869788
0.6360106001766697,0.07575691069739543
0.6370106168436142,0.0954076017540057
0.6380106335105585,0.03756776377729022
0.639010650177503,0.11822674447417184
0.6400106668444474,0.08133531095108512
0.6410106835113919,0.08899247710931568
0.6420107001783364,0.07813968308130702
0.6430107168452808,0.06931083224293863
0.6440107335122253,0.013464214396822695
0.6450107501791698,0.038004328316483156
0.6460107668461141,0.09630262254808773
0.6470107835130586,0.1234209188435105
0.648010800180003,0.0697905088553652
0.6490108168469475,0.01664067552791819
0.650010833513892,0.03048375721267784
0.6510108501808364,0.0999830796171423
0.6520108668477809,0.11041881498564043
0.6530108835147252,0.12676293433727875
0.6540109001816697,0.03489570672108398
0.6550109168486142,0.05818335580665357
0.6560109335155586,0.017900813111811593
0.6570109501825031,0.09032061869506067
0.6580109668494476,0.05999187422693269
0.659010983516392,0.0825178767254424
0.6600110001833365,0.11761872196090613
0.6610110168502809,0.07929181224595201
0.6620110335172253,0.15561420681461413
0.6630110501841698,0.06715455396192493
0.6640110668511142,0.041301823627727635
0.6650110835180587,0.025339486494523916
0.6660111001850031,0.10335615188870556
0.6670111168519476,0.06616416472211627
0.6680111335188921,0.13584053752580288
0.6690111501858365,0.03757095552419375
0.670011166852781,0.10207576172614531
0.6710111835197254,0.06617592476811252
0.6720112001866698,0.07086479521698817
0.6730112168536143,0.11730349142147652
0.6740112335205587,0.09619884659979966
0.6750112501875032,0.08750641510652121
0.6760112668544477,0.04165720397621923
0.6770112835213921,0.05552154906454256
0.6780113001883366,0.1047933963070556
0.6790113168552809,0.12510444473588955
0.6800113335222254,0.048674157954040655
0.6810113501891699,0.08669314190421934
0.6820113668561143,0.04745731492918294
0.6830113835230588,0.10911715393186142
0.6840114001900032,0.13541297064560548
0.6850114168569477,0.09275731194429851
0.6860114335238922,0.09269039027699974
0.6870114501908365,0.06496457900853013
0.688011466857781,0.08506852119192085
0.6890114835247255,0.054535549796034664
0.6900115001916699,0.07016569527841697
0.6910115168586144,0.039574881976229756
0.6920115335255588,0.11777324713524713
0.6930115501925033,0.04955565602001633
0.6940115668594478,0.08211202205263604
0.6950115835263921,0.07388321279861913
0.6960116001933366,0.12714815716385938
0.697011616860281,0.11264422158869405
0.6980116335272255,0.05123686782669414
0.69901165019417,0.08062719247677788
0.7000116668611144,0.10434270305415937
0.7010116835280589,0.11484356600899366
0.7020117001950034,0.05368605437048351
0.7030117168619477,0.04729624366410903
0.7040117335288922,0.07774910724760475
0.7050117501958366,0.049913423277453156
0.7060117668627811,0.11728630080535572
0.7070117835297256,0.09019128996891522
0.70801180019667,0.04680852630630724
0.7090118168636145,0.1291883501842102
0.7100118335305589,0.11759052471105061
0.7110118501975033,0.046399356218077815
0.7120118668644478,0.07672887979640129
0.7130118835313922,0.11523720210083566
0.7140119001983367,0.06605940027942657
0.7150119168652811,0.10655766503758772
0.7160119335322256,0.08416893573595942
0.7170119501991701,0.042557722066110845
0.7180119668661145,0.06860104978553264
0.719011983533059,0.04914228349508594
0.7200120002000034,0.03022929572515283
0.7210120168669478,0.057482813484685744
0.7220120335338923,0.07181142415172835
0.7230120502008367,0.030044160731052802
0.7240120668677812,0.11415610646498757
0.7250120835347257,0.12479365884726706
0.7260121002016701,0.11107107310546734
0.7270121168686146,0.0609434209168958
0.7280121335355589,0.13002627181005258
0.7290121502025034,0.10517992347475867
0.7300121668694479,0.07291146612675092
0.7310121835363923,0.11554404503692799
0.7320122002033368,0.03735119670324382
0.7330122168702813,0.040890971132225395
0.7340122335372257,0.043833597671887325
0.7350122502041702,0.054238143182264054
0.7360122668711145,0.10404688961783415
0.737012283538059,0.051944255624217076
0.7380123002050035,0.06527634459152522
0.7390123168719479,0.04897671587428289
0.7400123335388924,0.0912317750995658
0.7410123502058368,0.10083288417328425
0.7420123668727813,0.08870323217287215
0.7430123835397258,0.07466845915805148
0.7440124002066701,0.05955431875990249
0.7450124168736146,0.10091417902661629
0.7460124335405591,0.11564845067065826
0.7470124502075035,0.045757125592936675
0.748012466874448,0.07842835843804785
0.7490124835413924,0.12852414735041431
0.7500125002083369,0.08467741949301974
0.7510125168752814,0.0884812612561424
0.7520125335422257,0.11076113900417939
0.7530125502091702,0.07499689181129263
0.7540125668761146,0.06221072552238963
0.7550125835430591,0.0863020804924279
0.7560126002100036,0.10510773270402743
0.757012616876948,0.09546474812153562
0.7580126335438925,0.10000292146043689
0.7590126502108369,0.07387981780067293
0.7600126668777814,0.06317393731105228
0.7610126835447258,0.057234385517043955
0.7620127002116702,0.09700635497850184
0.7630127168786147,0.10713915877694755
0.7640127335455592,0.060529059117034545
0.7650127502125036,0.08504075065923598
0.7660127668794481,0.07380123708899801
0.7670127835463925,0.049711690820743434
0.768012800213337,0.14654726419451736
0.7690128168802814,0.04252947038013836
0.7700128335472258,0.11619254370949225
0.7710128502141703,0.1271624077404288
0.7720128668811147,0.06521300284851005
0.7730128835480592,0.07129005296207432
0.7740129002150037,0.06952012526114607
0.7750129168819481,0.08978569202180489
0.7760129335488926,0.037242194182870975
0.777012950215837,0.11004016872114175
0.7780129668827814,0.11248231666170813
0.7790129835497259,0.08815839183428924
0.7800130002166703,0.08409540980956293
0.7810130168836148,0.05397601388005922
0.7820130335505593,0.07452369309876974
0.7830130502175037,0.05523639885436652
0.7840130668844482,0.10929634377533223
0.7850130835513925,0.08722591082552246
0.786013100218337,0.09577146241957023
0.7870131168852815,0.10775357675763139
0.7880131335522259,0.057163812156241174
0.7890131502191704,0.08437233783300266
0.7900131668861148,0.10650000505969051
0.7910131835530593,0.03405879497193852
0.7920132002200038,0.06686814722043025
0.7930132168869481,0.0669669211022741
0.7940132335538926,0.09559342686488584
0.7950132502208371,0.10947061976575134
0.7960132668877815,0.11054617582537757
0.797013283554726,0.08080196022895329
0.7980133002216704,0.12229438906178886
0.7990133168886149,0.052269795354929635
0.8000133335555594,0.11182548605294469
0.8010133502225038,0.10855951123569539
0.8020133668894482,0.10507769864816353
0.8030133835563926,0.10562920282131433
0.8040134002233371,0.08179949532085418
0.8050134168902816,0.11503998558210851
0.806013433557226,0.11376347398357839
0.8070134502241705,0.12601143867416287
0.808013466891115,0.1381925626453252
0.8090134835580594,0.11383160392219524
0.8100135002250038,0.04450177511558257
0.8110135168919482,0.07552456677073462
0.8120135335588927,0.0452181387087546
0.8130135502258372,0.06704278425015806
0.8140135668927816,0.07134604678030193
0.8150135835597261,0.0771694605225718
0.8160136002266705,0.05174576304555905
0.817013616893615,0.10102170642186684
0.8180136335605594,0.031071411007696677
0.8190136502275038,0.04175271241578349
0.8200136668944483,0.11029753338573133
0.8210136835613928,0.11644133881444933
0.8220137002283372,0.03524938060270336
0.8230137168952817,0.07393803733298883
0.8240137335622261,0.059690239735097246
0.8250137502291706,0.08568627474416966
0.826013766896115,0.09831347719989296
0.8270137835630594,0.09134414579460677
0.8280138002300039,0.07805825257882104
0.8290138168969483,0.13370219585198914
0.8300138335638928,0.07660017670884528
0.8310138502308373,0.11256174724575219
0.8320138668977817,0.09422410975002633
0.8330138835647262,0.12417740681267242
0.8340139002316705,0.05350669238330383
0.835013916898615,0.09643928722946565
0.8360139335655595,0.04844125341986148
0.8370139502325039,0.1172726179687105
0.8380139668994484,0.09381241786770327
0.8390139835663929,0.026703967064835143
0.8400140002333373,0.0985153471140133
0.8410140169002818,0.030494214657697624
0.8420140335672262,0.0838644930574859
0.8430140502341706,0.08720884440544772
0.8440140669011151,0.062310272264336344
0.8450140835680595,0.11472334912046814
0.846014100235004,0.12437016584024992
0.8470141169019484,0.06379049542701162
0.8480141335688929,0.06483541762215093
0.8490141502358374,0.052043318822517184
0.8500141669027818,0.027757430764607557
0.8510141835697262,0.0850324989233174
0.8520142002366707,0.08809310726190456
0.8530142169036151,0.03542062804869115
0.8540142335705596,0.11243147046409849
0.855014250237504,0.07639177348068321
0.8560142669044485,0.098940266469079
0.857014283571393,0.08531473750862936
0.8580143002383374,0.06166346158978957
0.8590143169052818,0.026935906441536945
0.8600143335722262,0.03743744320830833
0.8610143502391707,0.046831572331192
0.8620143669061152,0.10739179991328263
0.8630143835730596,0.045578839969561635
0.8640144002400041,0.06754341632117475
0.8650144169069485,0.031201608718266313
0.866014433573893,0.1205943825992483
0.8670144502408375,0.06420165723112864
0.8680144669077818,0.06805448139326763
0.8690144835747263,0.07237964622449117
0.8700145002416708,0.10602097292705555
0.8710145169086152,0.11265636987925301
0.8720145335755597,0.11294744785915847
0.8730145502425041,0.03652740221153416
0.8740145669094486,0.043509770405169276
0.8750145835763931,0.10961501619716019
0.8760146002433374,0.10049841883223586
0.8770146169102819,0.04921302199181335
0.8780146335772263,0.12032907652605282
0.8790146502441708,0.0381984824701591
0.8800146669111153,0.05982959635992407
0.8810146835780597,0.0720994817924156
0.8820147002450042,0.060003080432515635
0.8830147169119487,0.11089850817939076
0.884014733578893,0.11148207261860017
0.8850147502458375,0.030981030075127165
0.8860147669127819,0.022339904078124365
0.8870147835797264,0.050617305765467094
0.8880148002466709,0.10937756687515922
0.8890148169136153,0.05229453832348039
0.8900148335805598,0.07077900871857064
0.8910148502475042,0.0798229159002944
0.8920148669144486,0.03143212051240568
0.8930148835813931,0.045192817378650954
0.8940149002483375,0.07740127788096261
0.895014916915282,0.07989084101181458
0.8960149335822265,0.04580983271774588
0.8970149502491709,0.01989484972378665
0.8980149669161154,0.0336421376790846
0.8990149835830598,0.10768784418665757
0.9000150002500042,0.015986560961980124
0.9010150169169487,0.09056919951821696
0.9020150335838931,0.0684463270749355
0.9030150502508376,0.07314179344858752
0.904015066917782,0.09734479082638446
0.9050150835847265,0.06175198860846368
0.906015100251671,0.02342685994700786
0.9070151169186154,0.10246811953239708
0.9080151335855599,0.07197433240907332
0.9090151502525042,0.12512032077996255
0.9100151669194487,0.10552667200882038
0.9110151835863932,0.039661595651067055
0.9120152002533376,0.06854762858563572
0.9130152169202821,0.1106234208507582
0.9140152335872266,0.09593885964490542
0.915015250254171,0.057315850701072285
0.9160152669211155,0.08361716153104136
0.9170152835880598,0.04441389847150099
0.9180153002550043,0.06593656272272405
0.9190153169219488,0.0888560847135623
0.9200153335888932,0.1324260943726101
0.9210153502558377,0.08387636692651945
0.9220153669227821,0.05848465657626254
0.9230153835897266,0.06398562003701196
0.9240154002566711,0.0753095441270887
0.9250154169236154,0.05174607775712464
0.9260154335905599,0.06990582721912987
0.9270154502575044,0.11938955880871692
0.9280154669244488,0.04561993039735834
0.9290154835913933,0.030328237475246936
0.9300155002583377,0.05040096489686961
0.9310155169252822,0.10859500910533383
0.9320155335922267,0.02958104626423161
0.933015550259171,0.1010925950135008
0.9340155669261155,0.11361086326198912
0.9350155835930599,0.12565454634140796
0.9360156002600044,0.0678588505272098
0.9370156169269489,0.03409981808966543
0.9380156335938933,0.09730688903535437
0.9390156502608378,0.06544964373465718
0.9400156669277822,0.04361086200227638
0.9410156835947266,0.10763993663164848
0.9420157002616711,0.09344660573564434
0.9430157169286155,0.09641544674833517
0.94401573359556,0.10451807622411373
0.9450157502625045,0.04164014718665525
0.9460157669294489,0.046007984701365454
0.9470157835963934,0.12199946001081444
0.9480158002633378,0.09621837206229054
0.9490158169302823,0.03794200572743854
0.9500158335972267,0.10054989963352795
0.9510158502641711,0.09207908591863577
0.9520158669311156,0.10328395398400446
0.95301588359806,0.1073065598341701
0.9540159002650045,0.058726286443227
0.955015916931949,0.0394912324261866
0.9560159335988934,0.026495800098965773
0.9570159502658379,0.0698262969666495
0.9580159669327823,0.05270357123695761
0.9590159835997267,0.06544976523427515
0.9600160002666712,0.03972387766387242
0.9610160169336156,0.09983840222018327
0.9620160336005601,0.08967064901806956
0.9630160502675046,0.03436609807374774
0.964016066934449,0.05062989252799713
0.9650160836013935,0.08346710523820072
0.9660161002683378,0.05374367707885952
0.9670161169352823,0.1279898809092225
0.9680161336022268,0.10150173754555254
0.9690161502691712,0.12031700774687581
0.9700161669361157,0.11528855937942784
0.9710161836030601,0.12042157328345773
0.9720162002700046,0.08126644626723278
0.9730162169369491,0.04762369553010759
0.9740162336038934,0.10804098328854506
0.9750162502708379,0.10190682383946514
0.9760162669377824,0.1108229679806276
0.9770162836047268,0.06689688753673835
0.9780163002716713,0.09502895447571562
0.9790163169386157,0.02908097685276006
0.9800163336055602,0.07639327762497998
0.9810163502725047,0.0374627949476472
0.982016366939449,0.07015427234926364
0.9830163836063935,0.03833162231779447
0.9840164002733379,0.1075503731602228
0.9850164169402824,0.060020350736403785
0.9860164336072269,0.10376218608114858
0.9870164502741713,0.10805931359920863
0.9880164669411158,0.12699998474386942
0.9890164836080603,0.1171366420260634
0.9900165002750047,0.06352261446331973
0.9910165169419491,0.09564661497816053
0.9920165336088935,0.06302317595106958
0.993016550275838,0.035868912890753335
0.9940165669427825,0.02705640350573299
0.9950165836097269,0.10286034347117835
0.9960166002766714,0.057713273427887936
0.9970166169436158,0.06919429888900462
0.9980166336105603,0.10533257927938085
0.9990166502775047,0.046891209826023364
1.0000166669444492,0.11723672194770296
1.0010166836113936,0.0468979211472659
1.002016700278338,0.0967771174907573
1.0030167169452826,0.02461724278563455
1.004016733612227,0.11984923503835133
1.0050167502791714,0.05050035786574754
1.0060167669461157,0.09279989624413702
1.0070167836130604,0.07889539203886857
1.0080168002800047,0.04324218227100038
1.0090168169469491,0.11816658149891722
1.0100168336138937,0.11881564995272699
1.011016850280838,0.11047466997043462
1.0120168669477825,0.043543723704554095
1.013016883614727,0.034212611903352494
1.0140169002816715,0.09786980654234678
1.0150169169486158,0.04475804351932647
1.0160169336155604,0.11604392513856783
1.0170169502825048,0.062171450843729284
1.0180169669494492,0.03837230291086924
1.0190169836163936,0.040122129332740675
1.0200170002833382,0.06289523330991291
1.0210170169502826,0.10706909308178825
1.022017033617227,0.06900899885193128
1.0230170502841716,0.03571201726123109
1.024017066951116,0.06437999976995895
1.0250170836180603,0.0858363725228387
1.026017100285005,0.13737080743502375
1.0270171169519493,0.10493563488230528
1.0280171336188937,0.0937818923608057
1.0290171502858383,0.09628685324568126
1.0300171669527827,0.07755014812880513
1.031017183619727,0.06649139082774902
1.0320172002866714,0.023495356756511755
1.033017216953616,0.12832370528906598
1.0340172336205604,0.05595801772673755
1.0350172502875048,0.09691399231109257
1.0360172669544494,0.02732384747262101
1.0370172836213938,0.08332124304576996
1.0380173002883382,0.02712541889048789
1.0390173169552828,0.10805995250959095
1.0400173336222271,0.012875848801972109
1.0410173502891715,0.08396197348595515
1.0420173669561161,0.03943353836418887
1.0430173836230605,0.07217454390505543
1.044017400290005,0.09098301736468438
1.0450174169569493,0.088534589584945
1.0460174336238939,0.04670371316475314
1.0470174502908383,0.11302704578084641
1.0480174669577826,0.11336543692419118
1.0490174836247272,0.10825634468597131
1.0500175002916716,0.0509702502077428
1.051017516958616,0.03837570573366755
1.0520175336255606,0.0751022036164044
1.053017550292505,0.08912610333052015
1.0540175669594494,0.08562455132114943
1.055017583626394,0.11985585152508035
1.0560176002933384,0.038464885043751326
1.0570176169602827,0.12591023838189566
1.0580176336272271,0.043410379450274816
1.0590176502941717,0.09982305089790554
1.060017666961116,0.0378199524807632
1.0610176836280605,0.11422396897892377
1.062017700295005,0.07668662625653863
1.0630177169619495,0.073587732630779
1.0640177336288938,0.11830110053487515
1.0650177502958385,0.0994704818919186
1.0660177669627828,0.11123891854740975
1.0670177836297272,0.03112838594322541
1.0680178002966716,0.08525406569343857
1.0690178169636162,0.08964757180050412
1.0700178336305606,0.06293939410496488
1.071017850297505,0.05521841311038239
1.0720178669644496,0.052687752152779155
1.073017883631394,0.033369824067729426
1.0740179002983383,0.08480570166485393
1.075017916965283,0.06309467119391726
1.0760179336322273,0.0941563958025982
1.0770179502991717,0.07299811264761494
1.0780179669661163,0.08834078260006928
1.0790179836330607,0.038859436807426324
1.080018000300005,0.05397385935364313
1.0810180169669494,0.06677581939709641
1.082018033633894,0.043374401244589786
1.0830180503008384,0.05585360407402919
1.0840180669677828,0.020548373320821663
1.0850180836347274,0.08077348283927088
1.0860181003016718,0.12447681496610853
1.0870181169686162,0.1141531778561594
1.0880181336355608,0.09788004536381953
1.0890181503025052,0.0756003046523297
1.0900181669694495,0.07382114192455916
1.0910181836363941,0.134895822230842
1.0920182003033385,0.06498308900175279
1.093018216970283,0.08942177909210598
1.0940182336372273,0.053396621140167834
1.0950182503041719,0.09505907554427642
1.0960182669711163,0.02785931807355877
1.0970182836380606,0.1029701691596963
1.0980183003050052,0.056203316468470856
1.0990183169719496,0.06609243961539128
1.100018333638894,0.05876597800192655
1.1010183503058386,0.08142068781799189
1.102018366972783,0.0923733722823847
1.1030183836397274,0.07212837808457434
1.104018400306672,0.09724399096806959
1.1050184169736164,0.08783141067035709
1.1060184336405607,0.08561893296071729
1.1070184503075051,0.1239837254372298
1.1080184669744497,0.07632679416498026
1.109018483641394,0.1304011345972376
1.1100185003083385,0.11405087067377588
1.111018516975283,0.1278370959626257
1.1120185336422275,0.06713536447801309
1.1130185503091719,0.034310552058044494
1.1140185669761165,0.13218397625255887
1.1150185836430608,0.054518365178438104
1.1160186003100052,0.033352226821096516
1.1170186169769498,0.0385718880845046
1.1180186336438942,0.07151332379500851
1.1190186503108386,0.11782395538047906
1.120018666977783,0.08787289249118853
1.1210186836447276,0.11895375685286733
1.122018700311672,0.08523953472995963
1.1230187169786163,0.06890101712982566
1.124018733645561,0.06120598747871512
1.1250187503125053,0.029311592847931348
1.1260187669794497,0.11931298632248834
1.1270187836463943,0.05110630620896451
1.1280188003133387,0.11965586714094857
1.129018816980283,0.08517288242570988
1.1300188336472277,0.12867614990397275
1.131018850314172,0.092548128765536
1.1320188669811164,0.13819835203911304
1.1330188836480608,0.02865590611750995
1.1340189003150054,0.10641839347684794
1.1350189169819498,0.03292419185018347
1.1360189336488942,0.058657914768185306
1.1370189503158388,0.039757504346194454
1.1380189669827832,0.09287836477593518
1.1390189836497275,0.10690924301091559
1.1400190003166721,0.1018638236778189
1.1410190169836165,0.10360687124337109
1.142019033650561,0.1176287708947531
1.1430190503175053,0.12420564230110386
1.1440190669844499,0.09655034234040683
1.1450190836513943,0.03744131082440353
1.1460191003183386,0.12760303889151922
1.1470191169852832,0.1252391843962793
1.1480191336522276,0.03910190974194469
1.149019150319172,0.07373360040524221
1.1500191669861166,0.03829215555848748
1.151019183653061,0.06913817904620446
1.1520192003200054,0.036489287522617486
1.15301921698695,0.06904994405384088
1.1540192336538944,0.08657425386235637
1.1550192503208387,0.07722929676726092
1.1560192669877831,0.11611474520020604
1.1570192836547277,0.05848431155211721
1.158019300321672,0.05973366883287903
1.1590193169886165,0.1364884697623439
1.160019333655561,0.036208840962185025
1.1610193503225055,0.14402654847652405
1.1620193669894499,0.046305507990631094
1.1630193836563945,0.082638168178607
1.1640194003233388,0.044328242138786486
1.1650194169902832,0.13124336745132628
1.1660194336572278,0.03899273293692189
1.1670194503241722,0.0767264381686059
1.1680194669911166,0.06669915114570785
1.169019483658061,0.051307550055677484
1.1700195003250056,0.08228182192453504
1.17101951699195,0.04509267316414819
1.1720195336588943,0.07964068931877083
1.173019550325839,0.02688141368045859
1.1740195669927833,0.11109507939856557
1.1750195836597277,0.12174457149573278
1.1760196003266723,0.05946230450419719
1.1770196169936167,0.08415365838821483
1.178019633660561,0.041958709306636525
1.1790196503275057,0.12465494337125996
1.18001966699445,0.05434287847797324
1.1810196836613944,0.109709183681303
1.1820197003283388,0.08141770270226326
1.1830197169952834,0.07240666668720891
1.1840197336622278,0.07325164919112993
1.1850197503291722,0.11914527329484383
1.1860197669961168,0.08990401663171448
1.1870197836630612,0.12709965197335504
1.1880198003300055,0.0968567755051252
1.1890198169969501,0.0990237550267387
1.1900198336638945,0.054566383236607285
1.191019850330839,0.1175712644417805
1.1920198669977835,0.09505278591511104
1.1930198836647279,0.08891099652880824
1.1940199003316723,0.0905099702706871
1.1950199169986166,0.05906980316966612
1.1960199336655613,0.033671276314573235
1.1970199503325056,0.04777586733135723
1.19801996699945,0.09678945355608858
1.1990199836663946,0.12755075234904192
1.200020000333339,0.13284680573899318
1.2010200170002834,0.05766199466959626
1.202020033667228,0.08026078984481694
1.2030200503341724,0.12467983947797773
1.2040200670011167,0.08644984064286307
1.2050200836680613,0.03705246757618875
1.2060201003350057,0.057947242754745214
1.20702011700195,0.06859284583085784
1.2080201336688945,0.058967215484359216
1.209020150335839,0.09318207583186029
1.2100201670027835,0.016264668786362263
1.2110201836697279,0.06153619593390345
1.2120202003366725,0.06470700111238283
1.2130202170036168,0.12464216300599101
1.2140202336705612,0.02196862723759741
1.2150202503375058,0.12091568145508999
1.2160202670044502,0.10739654114890233
1.2170202836713946,0.04815967085822819
1.218020300338339,0.03572070201727846
1.2190203170052836,0.08070381668330691
1.220020333672228,0.04761925037790613
1.2210203503391723,0.12566606791247292
1.222020367006117,0.02987949694346599
1.2230203836730613,0.09923472479294236
1.2240204003400057,0.06045250303894337
1.2250204170069503,0.10568422268674141
1.2260204336738947,0.08262675047713067
1.227020450340839,0.07689322680317844
1.2280204670077837,0.035143038194398096
1.229020483674728,0.07412648321019238
1.2300205003416724,0.05708830952540986
1.2310205170086168,0.11126333903818995
1.2320205336755614,0.04291260917991218
1.2330205503425058,0.14418622999888966
1.2340205670094502,0.11700530650515843
1.2350205836763948,0.08562052475216106
1.2360206003433392,0.07411753258214714
1.2370206170102835,0.056402524378773314
1.2380206336772281,0.040238551377987625
1.2390206503441725,0.1084244767974503
1.240020667011117,0.06061252515398646
1.2410206836780615,0.08185662650790114
1.242020700345006,0.08919068028361864
1.2430207170119503,0.08117288985855778
1.2440207336788947,0.09071526081235032
1.2450207503458393,0.1085311976566844
1.2460207670127836,0.04468318776890673
1.247020783679728,0.011366723460061168
1.2480208003466726,0.032531288100593705
1.249020817013617,0.09093215896448247
1.2500208336805614,0.05794727289401336
1.251020850347506,0.0990426567527099
1.2520208670144504,0.09869552942133056
1.2530208836813947,0.06887852904955308
1.2540209003483394,0.10649181529284152
1.2550209170152837,0.048301376961262174
1.2560209336822281,0.041913823633492296
1.2570209503491725,0.12091394508492766
1.258020967016117,0.09505595603466284
1.2590209836830615,0.0385578898637531
1.2600210003500059,0.08037331615186663
1.2610210170169505,0.04778062544290895
1.2620210336838948,0.06249688395314468
1.2630210503508392,0.03902544512032474
1.2640210670177838,0.11827996445535821
1.2650210836847282,0.07064633781163648
1.2660211003516726,0.14328213595309836
1.2670211170186172,0.10530809548111018
1.2680211336855616,0.05020984969676683
1.269021150352506,0.04099628413424825
1.2700211670194503,0.027728464688353792
1.271021183686395,0.043343979473015014
1.2720212003533393,0.12367673447369104
1.2730212170202837,0.06285268731408676
1.2740212336872283,0.06629323013645892
1.2750212503541727,0.012254358748794738
1.276021267021117,0.06304403564361481
1.2770212836880617,0.1004813335425427
1.278021300355006,0.10909104784634091
1.2790213170219504,0.09071078523658246
1.2800213336888948,0.1323614080174472
1.2810213503558394,0.04318870131853972
1.2820213670227838,0.09548068966766937
1.2830213836897282,0.08845766597217526
1.2840214003566728,0.06240072321241494
1.2850214170236172,0.05134045321052823
1.2860214336905615,0.11005374412507227
1.2870214503575061,0.10421218341062058
1.2880214670244505,0.07141532629086295
1.289021483691395,0.06108935270993733
1.2900215003583395,0.11950086030848027
1.291021517025284,0.05948673891628076
1.2920215336922283,0.07928399513051158
1.2930215503591727,0.12324633279291757
1.2940215670261173,0.11083233946549804
1.2950215836930616,0.10849718086987581
1.296021600360006,0.06563935376278107
1.2970216170269506,0.1290274159440529
1.298021633693895,0.07273340734886634
1.2990216503608394,0.05871718153123422
1.300021667027784,0.04267062795643824
1.3010216836947284,0.06019898644826658
1.3020217003616728,0.06285926315049921
1.3030217170286174,0.06718642650691023
1.3040217336955617,0.07827193780445128
1.3050217503625061,0.08665434945659223
1.3060217670294505,0.04069473996058976
1.307021783696395,0.09652319909405004
1.3080218003633395,0.09121188400446965
1.3090218170302839,0.10845787129878887
1.3100218336972285,0.11818885271912996
1.3110218503641728,0.11275445192807981
1.3120218670311172,0.04068995632174167
1.3130218836980618,0.06534569697891336
1.3140219003650062,0.009779209042729976
1.3150219170319506,0.11524361665691633
1.3160219336988952,0.06138643894290239
1.3170219503658396,0.08412372583780421
1.318021967032784,0.11310147613405554
1.3190219836997283,0.08840046675301837
1.320022000366673,0.09849965227308159
1.3210220170336173,0.11587315369277414
1.3220220337005617,0.03474508484696446
1.3230220503675063,0.060488092742964496
1.3240220670344507,0.0530200693085359
1.325022083701395,0.06683433012307191
1.3260221003683397,0.11219387293041905
1.327022117035284,0.09180998646062319
1.3280221337022284,0.12317880998628351
1.329022150369173,0.02822916575133009
1.3300221670361174,0.030621339844817075
1.3310221837030618,0.10770371825906126
1.3320222003700062,0.12015554514520198
1.3330222170369508,0.07892686782977643
1.3340222337038952,0.04866919611386823
1.3350222503708395,0.08908235326519695
1.3360222670377842,0.04224388991524401
1.3370222837047285,0.07022245614043228
1.338022300371673,0.07450991103857665
1.3390223170386175,0.0731894700005972
1.340022333705562,0.1033432341362605
1.3410223503725063,0.05776696558034786
1.3420223670394509,0.03483457949297206
1.3430223837063953,0.06582872790646065
1.3440224003733396,0.08761271806488272
1.345022417040284,0.04743786017681003
1.3460224337072286,0.057869622003567156
1.347022450374173,0.05363710700701567
1.3480224670411174,0.02394886739989406
1.349022483708062,0.08060023177169873
1.3500225003750064,0.11477290653266713
1.3510225170419508,0.08240369126547462
1.3520225337088954,0.059697277215617225
1.3530225503758397,0.07425588858489497
1.3540225670427841,0.0692320870997529
1.3550225837097285,0.08552121934371051
1.356022600376673,0.10190857463966628
1.3570226170436175,0.08840332884048059
1.3580226337105619,0.1191993799576511
1.3590226503775065,0.049225855212165236
1.3600226670444509,0.1394375574586623
1.3610226837113952,0.0792586859593949
1.3620227003783398,0.1287108088956835
1.3630227170452842,0.055930353819724034
1.3640227337122286,0.07770171809216694
1.3650227503791732,0.09742207545456558
1.3660227670461176,0.11992268661987884
1.367022783713062,0.0521577436401891
1.3680228003800063,0.07452879037016077
1.369022817046951,0.0813017027178075
1.3700228337138953,0.0899069279259144
1.3710228503808397,0.03097447128245442
1.3720228670477843,0.07473881256447812
1.3730228837147287,0.050995483639933364
1.374022900381673,0.10088838449171383
1.3750229170486177,0.11792036438848699
1.376022933715562,0.0993642529585705
1.3770229503825064,0.04057381279645516
1.378022967049451,0.08792153041551079
1.3790229837163954,0.019171873408389207
1.3800230003833398,0.11614262562129388
1.3810230170502842,0.06367998920618555
1.3820230337172288,0.07783024100416679
1.3830230503841732,0.07985906738335066
1.3840230670511176,0.11629449916273471
1.3850230837180622,0.04999093173239526
1.3860231003850065,0.0859373758590029
1.387023117051951,0.047453582114015014
1.3880231337188955,0.1035685590549789
1.38902315038584,0.08854033129549034
1.3900231670527843,0.08771188232642785
1.3910231837197289,0.10699776374177748
1.3920232003866733,0.08955791765112654
1.3930232170536176,0.03502704528728463
1.394023233720562,0.06912157182693812
1.3950232503875066,0.04395910532121925
1.396023267054451,0.11219742361075385
1.3970232837213954,0.08476735040918833
1.39802330038834,0.060265359529140555
1.3990233170552844,0.050330143861792125
1.4000233337222288,0.06574779230558433
1.4010233503891734,0.09588565293888872
1.4020233670561177,0.06546828591442447
1.4030233837230621,0.037131048769958264
1.4040234003900067,0.12026556333211401
1.405023417056951,0.11975842262966781
1.4060234337238955,0.09027477991172393
1.4070234503908399,0.10916732587813176
1.4080234670577845,0.08100295535182993
1.4090234837247289,0.08922027795800846
1.4100235003916732,0.08524009520252594
1.4110235170586178,0.06609285794245164
1.4120235337255622,0.08683042254782834
1.4130235503925066,0.10857415524971904
1.4140235670594512,0.04392028238394456
1.4150235837263956,0.11068059318170918
1.41602360039334,0.08573886884545749
1.4170236170602846,0.11102200067898838
1.418023633727229,0.08204436513991854
1.4190236503941733,0.09674813871324238
1.4200236670611177,0.10806861928946923
1.4210236837280623,0.06832337855148302
1.4220237003950067,0.10905136663244688
1.423023717061951,0.123774760521046
1.4240237337288957,0.07118788458903962
1.42502375039584,0.12557063611014302
1.4260237670627844,0.06869930599641877
1.427023783729729,0.10800622575083585
1.4280238003966734,0.09895414518617571
1.4290238170636178,0.08769486798922005
1.4300238337305622,0.02142736135382818
1.4310238503975068,0.0293247604582684
1.4320238670644512,0.08332630760324315
1.4330238837313956,0.08552866691522074
1.4340239003983402,0.1062260575973296
1.4350239170652845,0.10462152754653786
1.436023933732229,0.07761259183970214
1.4370239503991735,0.03500799617317281
1.438023967066118,0.054951592818637866
1.4390239837330623,0.036341636448678875
1.4400240004000069,0.12685321125024931
1.4410240170669513,0.11988039239550069
1.4420240337338956,0.035431879942464536
1.44302405040084,0.02863618416223445
1.4440240670677846,0.12351150978233884
1.445024083734729,0.08858422776685587
1.4460241004016734,0.10101500535155561
1.447024117068618,0.11106944529494366
1.4480241337355624,0.05217129153817174
1.4490241504025068,0.13982275008877273
1.4500241670694514,0.1264900078479813
1.4510241837363957,0.038789432873936706
1.4520242004033401,0.09642536114930544
1.4530242170702847,0.09498027135010267
1.454024233737229,0.11306428730418344
1.4550242504041735,0.10958396322694741
1.4560242670711179,0.07774747334869922
1.4570242837380625,0.080426622044955
1.4580243004050069,0.0460995759801656
1.4590243170719512,0.03847561577610933
1.4600243337388958,0.0320976484313764
1.4610243504058402,0.08062955400652855
1.4620243670727846,0.07141832364290411
1.4630243837397292,0.1311062844478567
1.4640244004066736,0.0585338861606139
1.465024417073618,0.04923686359453691
1.4660244337405626,0.018213400526313248
1.467024450407507,0.08187837951106876
1.4680244670744513,0.10906438027530788
1.4690244837413957,0.05163278926748977
1.4700245004083403,0.04569107001960782
1.4710245170752847,0.03197357830102636
1.472024533742229,0.05002685467775425
1.4730245504091737,0.07074008819357253
1.474024567076118,0.13662947656457153
1.4750245837430624,0.039264419260263014
1.476024600410007,0.10584980135049492
1.4770246170769514,0.07225326768265045
1.4780246337438958,0.05959624905423719
1.4790246504108404,0.12455675309020173
1.4800246670777848,0.043057787861261666
1.4810246837447292,0.06460136610208048
1.4820247004116736,0.07217383179355101
1.4830247170786182,0.14437544622178566
1.4840247337455625,0.09296448853015207
1.485024750412507,0.07638449953241713
1.4860247670794515,0.07495683196786265
1.487024783746396,0.12944936461308532
1.4880248004133403,0.09035616062139974
1.489024817080285,0.0994253917224543
1.4900248337472293,0.13396711591636185
1.4910248504141737,0.11353104328112099
1.4920248670811183,0.03680624783474334
1.4930248837480626,0.08581836028543831
1.494024900415007,0.07662071135038308
1.4950249170819514,0.0826411720027887
1.496024933748896,0.09989125269433688
1.4970249504158404,0.09307271154358639
1.4980249670827848,0.1111146499455026
1.4990249837497294,0.11131694811043259
1.5000250004166737,0.11528501740642663
1.5010250170836181,0.09847840745699765
1.5020250337505627,0.11779988477578304
1.5030250504175071,0.06928342596728185
1.5040250670844515,0.07203291374166688
1.5050250837513959,0.07157597649154458
1.5060251004183405,0.04118617983849428
1.5070251170852849,0.062131432958404356
1.5080251337522292,0.12151504603363869
1.5090251504191738,0.0805100598211554
1.5100251670861182,0.10013868312656585
1.5110251837530626,0.12134351066025015
1.5120252004200072,0.09819483863346423
1.5130252170869516,0.059834990786343134
1.514025233753896,0.10354560945399979
1.5150252504208406,0.1299658755491994
1.516025267087785,0.1271034176848562
1.5170252837547293,0.05092378542200181
1.5180253004216737,0.034802226713811855
1.5190253170886183,0.08412620981787408
1.5200253337555627,0.05878978436467294
1.521025350422507,0.11499947885412405
1.5220253670894517,0.12193634965369778
1.523025383756396,0.05188871331244143
1.5240254004233404,0.1272601256947065
1.525025417090285,0.07768352387968322
1.5260254337572294,0.08014733032088989
1.5270254504241738,0.04921281827856949
1.5280254670911184,0.09153854712884511
1.5290254837580628,0.09144867662811233
1.5300255004250072,0.11957288151654956
1.5310255170919516,0.12797497954109457
1.5320255337588962,0.11917830172728795
1.5330255504258405,0.07206626186566296
1.534025567092785,0.06153891940243979
1.5350255837597295,0.11279292394175018
1.536025600426674,0.04427743150922009
1.5370256170936183,0.05630335357560329
1.538025633760563,0.11462720130016707
1.5390256504275073,0.060793050666347784
1.5400256670944517,0.07991976944430661
1.5410256837613963,0.07029724118612744
1.5420257004283406,0.10243034285145212
1.543025717095285,0.0419086560812373
1.5440257337622294,0.058114531254495616
1.545025750429174,0.062490428472874573
1.5460257670961184,0.028551852884754293
1.5470257837630628,0.10575527602881776
1.5480258004300074,0.0634507479964529
1.5490258170969518,0.07221045172338617
1.5500258337638961,0.10803712712193735
1.5510258504308407,0.05289294050020008
1.5520258670977851,0.07013058909118348
1.5530258837647295,0.10755979946869673
1.554025900431674,0.07927093585096882
1.5550259170986185,0.06739911510534134
1.5560259337655629,0.03744462761678379
1.5570259504325072,0.09916024888164368
1.5580259670994518,0.13159574888430237
1.5590259837663962,0.042596301133857956
1.5600260004333406,0.09307015774815512
1.5610260171002852,0.1343730597322247
1.5620260337672296,0.04253293659194864
1.563026050434174,0.050999678152670404
1.5640260671011186,0.03720359730568145
1.565026083768063,0.0915660320853009
1.5660261004350073,0.13208770260466132
1.567026117101952,0.0641043454119066
1.5680261337688963,0.0332732206534006
1.5690261504358407,0.10678170552621018
1.570026167102785,0.10566467344303342
1.5710261837697297,0.10130608799506936
1.572026200436674,0.1189436309752332
1.5730262171036185,0.03322862782154955
1.574026233770563,0.06514333444453639
1.5750262504375074,0.03839166660256376
1.5760262671044518,0.032351117342033046
1.5770262837713964,0.07190857476338168
1.5780263004383408,0.01966512706178029
1.5790263171052852,0.09642522889699284
1.5800263337722296,0.10756789208896736
1.5810263504391742,0.08161476922379136
1.5820263671061185,0.07780102295608005
1.583026383773063,0.10354129145095399
1.5840264004400075,0.08154360940094241
1.585026417106952,0.0490814052116825
1.5860264337738963,0.06492473115933499
1.587026450440841,0.04827350388714876
1.5880264671077853,0.03020951342649085
1.5890264837747297,0.038404827260692914
1.5900265004416743,0.07018817904540639
1.5910265171086186,0.13092631737308452
1.592026533775563,0.11074288320878888
1.5930265504425074,0.08889664588549923
1.594026567109452,0.051015331781019156
1.5950265837763964,0.03336103687616088
1.5960266004433408,0.08570211217519363
1.5970266171102854,0.13555520101280338
1.5980266337772298,0.11335855496728663
1.5990266504441741,0.09684523459070622
1.6000266671111187,0.10529573828093466
1.6010266837780631,0.11277622505227222
1.6020267004450075,0.11331364183790002
1.603026717111952,0.11663865517648106
1.6040267337788965,0.11068893843332443
1.6050267504458409,0.11455356608491475
1.6060267671127852,0.11435737120972062
1.6070267837797299,0.0837722659708357
1.6080268004466742,0.07071053214497887
1.6090268171136186,0.03788109085063975
1.6100268337805632,0.08446022369022683
1.6110268504475076,0.12961963897847173
1.612026867114452,0.08991229766466964
1.6130268837813966,0.07945951959270181
1.614026900448341,0.07214025529760686
1.6150269171152853,0.11026543938667085
1.61602693378223,0.033103458201475984
1.6170269504491743,0.05865775536206129
1.6180269671161187,0.11431349497254724
1.619026983783063,0.04399004142259502
1.6200270004500077,0.0777306398602823
1.621027017116952,0.039147050192565785
1.6220270337838965,0.04556298236391807
1.623027050450841,0.05319075192918839
1.6240270671177854,0.10431541191478204
1.6250270837847298,0.11486495119083885
1.6260271004516744,0.038463636482777286
1.6270271171186188,0.04260305947538623
1.6280271337855632,0.043772796854121485
1.6290271504525078,0.12012407343502549
1.6300271671194522,0.04415122287244887
1.6310271837863966,0.10989683009751222
1.632027200453341,0.06518814580276663
1.6330272171202855,0.07270811041118491
1.63402723378723,0.05387319522811079
1.6350272504541743,0.13438252528549116
1.636027267121119,0.058618484336903615
1.6370272837880633,0.014683839957442765
1.6380273004550077,0.1361320094745066
1.6390273171219523,0.06822424096571378
1.6400273337888966,0.03930487608888797
1.641027350455841,0.10382859785091604
1.6420273671227856,0.12559366917315828
1.64302738378973,0.1162743829776701
1.6440274004566744,0.1252561953528888
1.6450274171236188,0.08128655285791309
1.6460274337905634,0.09153056924539961
1.6470274504575078,0.04641704921531404
1.6480274671244521,0.12507280515354266
1.6490274837913967,0.0821160424624841
1.6500275004583411,0.11312544376340906
1.6510275171252855,0.0824054983149175
1.65202753379223,0.11898332620976874
1.6530275504591745,0.027141128607384487
1.6540275671261189,0.05995152666985627
1.6550275837930633,0.0467207724161683
1.6560276004600079,0.09249555676367947
1.6570276171269522,0.08798977585391025
1.6580276337938966,0.0893331651574176
1.6590276504608412,0.09736191580808824
1.6600276671277856,0.1085653780736221
1.66102768379473,0.12652716709847656
1.6620277004616746,0.028427991841694998
1.663027717128619,0.05630586495898196
1.6640277337955633,0.12083303376402568
1.665027750462508,0.03935256477873014
1.6660277671294523,0.07511545911542239
1.6670277837963967,0.08893680432312961
1.668027800463341,0.11614268962581463
1.6690278171302857,0.06786164613438592
1.67002783379723,0.07813637315814174
1.6710278504641745,0.05362866038977018
1.672027867131119,0.05083175419584407
1.6730278837980634,0.08390991854723885
1.6740279004650078,0.13239164480466972
1.6750279171319524,0.07603100561528284
1.6760279337988968,0.1268771041601594
1.6770279504658412,0.05417404451505252
1.6780279671327858,0.06889335863518238
1.6790279837997302,0.08849242319947288
1.6800280004666746,0.11380387906438957
1.681028017133619,0.12196997974927186
1.6820280338005635,0.06425029561031564
1.683028050467508,0.08509625023179763
1.6840280671344523,0.05089357263654
1.685028083801397,0.03492197193774459
1.6860281004683413,0.09215036275047932
1.6870281171352857,0.03598976784932962
1.6880281338022303,0.05855517764185184
1.6890281504691746,0.08385054491540714
1.690028167136119,0.08980474735980495
1.6910281838030636,0.09451435694386559
1.692028200470008,0.05601231196845548
1.6930282171369524,0.12264038467196262
1.6940282338038968,0.038944531636955694
1.6950282504708414,0.11254232623649177
1.6960282671377858,0.050487025975626876
1.6970282838047301,0.03925229539698996
1.6980283004716747,0.1016112870757224
1.6990283171386191,0.1329774631802168
1.7000283338055635,0.11776846758142782
1.701028350472508,0.05744804123389584
1.7020283671394525,0.11783733656926533
1.7030283838063969,0.0838593708558044
1.7040284004733415,0.04432097409567183
1.7050284171402859,0.0420138889987063
1.7060284338072302,0.01210105646051145
1.7070284504741746,0.05852933654531429
1.7080284671411192,0.08805838540140133
1.7090284838080636,0.12242490772822294
1.710028500475008,0.05002678367751707
1.7110285171419526,0.034072834798201675
1.712028533808897,0.04349464329569969
1.7130285504758413,0.08966343745459329
1.714028567142786,0.07854904721828113
1.7150285838097303,0.07582237968653266
1.7160286004766747,0.04377116706892587
1.7170286171436193,0.042563192724237336
1.7180286338105637,0.08084836079598581
1.719028650477508,0.040315706530545475
1.7200286671444525,0.11702502993556657
1.721028683811397,0.10084031951273924
1.7220287004783414,0.03536049068008371
1.7230287171452858,0.076933264531152
1.7240287338122304,0.07132590268108813
1.7250287504791748,0.13870704393998493
1.7260287671461192,0.07858945962900857
1.7270287838130638,0.07769870618747186
1.7280288004800082,0.1386302099435354
1.7290288171469526,0.08280728492916577
1.730028833813897,0.05466070396079881
1.7310288504808415,0.13148613559472103
1.732028867147786,0.10690002721532817
1.7330288838147303,0.11158152063925991
1.734028900481675,0.10159727161556965
1.7350289171486193,0.025424792748730544
1.7360289338155637,0.03273912584937098
1.7370289504825083,0.0745360933949986
1.7380289671494527,0.127566780528619
1.739028983816397,0.0399246076451724
1.7400290004833416,0.12787185637597234
1.741029017150286,0.030463412473182738
1.7420290338172304,0.11356555777262069
1.7430290504841748,0.07004431910914297
1.7440290671511194,0.07478919955355146
1.7450290838180638,0.0832651209388818
1.7460291004850081,0.11575406950035597
1.7470291171519527,0.08047105709375146
1.7480291338188971,0.11560212866324515
1.7490291504858415,0.06218466684431026
1.7500291671527861,0.10889158785379405
1.7510291838197305,0.10104521220200799
1.7520292004866749,0.10387261168396897
1.7530292171536195,0.12141595644999888
1.7540292338205639,0.1168824969854528
1.7550292504875082,0.12872161297932808
1.7560292671544526,0.08076035401742307
1.7570292838213972,0.08544849011292394
1.7580293004883416,0.11942307522644094
1.759029317155286,0.051555503080218404
1.7600293338222306,0.056087717410509205
1.761029350489175,0.05576954328938238
1.7620293671561194,0.06400466303987115
1.763029383823064,0.07383358515365318
1.7640294004900083,0.05870031325873286
1.7650294171569527,0.08116005363472201
1.7660294338238973,0.0975363350023145
1.7670294504908417,0.019368467490707156
1.768029467157786,0.0253714828837823
1.7690294838247305,0.028484779723756543
1.770029500491675,0.0469829488709522
1.7710295171586194,0.0987687770219661
1.7720295338255638,0.04378818532179591
1.7730295504925084,0.08440954781224413
1.7740295671594528,0.11115029741709456
1.7750295838263972,0.08874326537523929
1.7760296004933418,0.0853049711858549
1.7770296171602862,0.040565210433528044
1.7780296338272306,0.07462196164648474
1.7790296504941752,0.07548560537578422
1.7800296671611195,0.08981144846194491
1.781029683828064,0.08974536881437203
1.7820297004950083,0.10163139501433757
1.783029717161953,0.0548501171900073
1.7840297338288973,0.01958394068330745
1.7850297504958417,0.10742582260380265
1.7860297671627863,0.049199210198268915
1.7870297838297307,0.09609403353508252
1.788029800496675,0.07978015602391143
1.7890298171636196,0.04646708001728516
1.790029833830564,0.03448167302058873
1.7910298504975084,0.0943629419074945
1.792029867164453,0.04581486108258421
1.7930298838313974,0.1235556053708915
1.7940299004983418,0.08881822525905428
1.7950299171652861,0.04531936908635406
1.7960299338322308,0.08315053171896734
1.7970299504991751,0.06838420530931497
1.7980299671661195,0.04202819298442396
1.7990299838330641,0.023933366000714076
1.8000300005000085,0.09284689931186013
1.8010300171669529,0.07553184735063374
1.8020300338338975,0.01706918016153274
1.8030300505008419,0.05013392255024
1.8040300671677862,0.06670995465662959
1.8050300838347306,0.11577597458976396
1.8060301005016752,0.06468510259754584
1.8070301171686196,0.11398290837604338
1.808030133835564,0.07713374639589182
1.8090301505025086,0.11167302241603054
1.810030167169453,0.08467833003627998
1.8110301838363974,0.0690733620530635
1.812030200503342,0.05973522521369834
1.8130302171702863,0.08323599277552679
1.8140302338372307,0.08870216651689926
1.8150302505041753,0.026722644513035163
1.8160302671711197,0.0869604134762357
1.817030283838064,0.06402309293952213
1.8180303005050085,0.06260342213767041
1.819030317171953,0.04319119312910918
1.8200303338388975,0.041683450715671026
1.8210303505058418,0.09559681328075964
1.8220303671727864,0.09172959437886563
1.8230303838397308,0.08466610393265603
1.8240304005066752,0.05443334671160235
1.8250304171736198,0.14412547730247996
1.8260304338405642,0.04720755769875899
1.8270304505075086,0.11456229561691367
1.8280304671744532,0.08268345113369817
1.8290304838413975,0.07978459516797023
1.830030500508342,0.07547217420721658
1.8310305171752863,0.11215120070768175
1.832030533842231,0.06617451765225214
1.8330305505091753,0.09347147126585449
1.8340305671761197,0.12206299662735944
1.8350305838430643,0.0844495972923599
1.8360306005100087,0.05340824364921827
1.837030617176953,0.1159850016756758
1.8380306338438976,0.10580701734946876
1.839030650510842,0.06730222611324221
1.8400306671777864,0.0814352739833283
1.841030683844731,0.1044176165357685
1.8420307005116754,0.09352237096516693
1.8430307171786198,0.08623804139043399
1.8440307338455642,0.08805127334682257
1.8450307505125088,0.1228056223148607
1.8460307671794531,0.12256946294729289
1.8470307838463975,0.12858446509774976
1.8480308005133421,0.08890366314219397
1.8490308171802865,0.10581425768219095
1.8500308338472309,0.11560522544201567
1.8510308505141755,0.06084660960876858
1.8520308671811199,0.10880218722438047
1.8530308838480642,0.13747131503155308
1.8540309005150089,0.06454999069625943
1.8550309171819532,0.028389836772954844
1.8560309338488976,0.09516708185380963
1.857030950515842,0.05038666699701751
1.8580309671827866,0.11807108407037449
1.859030983849731,0.08286116802924356
1.8600310005166754,0.05690958391358382
1.86103101718362,0.11633814592692282
1.8620310338505643,0.06921906192332715
1.8630310505175087,0.06158235687015465
1.8640310671844533,0.03886429469409611
1.8650310838513977,0.11584475527154295
1.866031100518342,0.07036634101288425
1.8670311171852865,0.04787618955910774
1.868031133852231,0.09737995366983931
1.8690311505191755,0.04407311591463789
1.8700311671861198,0.06614131544360152
1.8710311838530644,0.05670972611064397
1.8720312005200088,0.07172575069477537
1.8730312171869532,0.10095590831596837
1.8740312338538978,0.11559432481106262
1.8750312505208422,0.0748951468048257
1.8760312671877866,0.06184439012784699
1.8770312838547312,0.11952464167467576
1.8780313005216756,0.1082048083112518
1.87903131718862,0.10212108803984833
1.8800313338555643,0.09436236106840894
1.881031350522509,0.11675706649035335
1.8820313671894533,0.09422048522270861
1.8830313838563977,0.07530897300541735
1.8840314005233423,0.1216332244578528
1.8850314171902867,0.0806383033126504
1.886031433857231,0.07423125906973348
1.8870314505241756,0.05081191072022023
1.88803146719112,0.11052060342615065
1.8890314838580644,0.05797824450346895
1.890031500525009,0.0646788980386861
1.8910315171919534,0.052764426494084825
1.8920315338588978,0.10122383664691276
1.8930315505258422,0.11550376628374256
1.8940315671927868,0.08761856834906014
1.8950315838597311,0.10821880000032871
1.8960316005266755,0.08767498773460645
1.8970316171936201,0.03502203649792707
1.8980316338605645,0.0734849874503945
1.8990316505275089,0.03163495660307214
1.9000316671944535,0.0677301637684583
1.9010316838613979,0.06348103132400437
1.9020317005283423,0.0617192024188028
1.9030317171952869,0.09745143915964397
1.9040317338622312,0.04825527305180029
1.9050317505291756,0.12762051956655665
1.90603176719612,0.09642930414085482
1.9070317838630646,0.06584134650253975
1.908031800530009,0.09670764403928757
1.9090318171969534,0.04917453617949306
1.910031833863898,0.03299127976694682
1.9110318505308423,0.03591938106933899
1.9120318671977867,0.08905854897729729
1.9130318838647313,0.1016462958015573
1.9140319005316757,0.0655021772496493
1.91503191719862,0.08715912475433898
1.9160319338655647,0.13877162227406256
1.917031950532509,0.07339691669757305
1.9180319671994535,0.061577556672851363
1.9190319838663978,0.08234522211624376
1.9200320005333424,0.0425829118548863
1.9210320172002868,0.08506226260436497
1.9220320338672312,0.10064289005127035
1.9230320505341758,0.026668961543826447
1.9240320672011202,0.11999909332631725
1.9250320838680646,0.13919710495349732
1.9260321005350092,0.09791196113239314
1.9270321172019536,0.11338707159263141
1.928032133868898,0.04254518412946254
1.9290321505358425,0.025350162652768665
1.930032167202787,0.10373150256260635
1.9310321838697313,0.06651968588538687
1.9320322005366757,0.09540915605228585
1.9330322172036203,0.11348799216873347
1.9340322338705647,0.04193977338916874
1.935032250537509,0.04772989915821112
1.9360322672044536,0.02337404752765754
1.937032283871398,0.1280491092236649
1.9380323005383424,0.03696238185222275
1.939032317205287,0.12881230444236597
1.9400323338722314,0.07093439106612581
1.9410323505391758,0.026285078943183562
1.9420323672061202,0.10422205793192127
1.9430323838730648,0.03163745227742729
1.9440324005400091,0.05691249398294889
1.9450324172069535,0.09148337016986297
1.9460324338738981,0.11133028418282605
1.9470324505408425,0.08333766050190601
1.9480324672077869,0.06102954553745581
1.9490324838747315,0.0559542267060531
1.9500325005416759,0.04146211573676479
1.9510325172086203,0.04607406740103227
1.9520325338755649,0.06330966560887141
1.9530325505425092,0.11396419239040446
1.9540325672094536,0.11029592894435808
1.955032583876398,0.10536518441174274
1.9560326005433426,0.044864418830205734
1.957032617210287,0.07562405403571473
1.9580326338772314,0.09685175502814232
1.959032650544176,0.06915964348044787
1.9600326672111203,0.06506630904495979
1.9610326838780647,0.09134809885423027
1.9620327005450093,0.13220974683348885
1.9630327172119537,0.03448007896404469
1.964032733878898,0.0670874597959074
1.9650327505458427,0.10603702975629055
1.966032767212787,0.07516672001670205
1.9670327838797315,0.047336436558176445
1.9680328005466758,0.10510232667482457
1.9690328172136204,0.07921858764559919
1.9700328338805648,0.13385069465156496
1.9710328505475092,0.10546561495249737
1.9720328672144538,0.06058819725479189
1.9730328838813982,0.05903880074446865
1.9740329005483426,0.05160292633700168
1.9750329172152872,0.14062856476120514
1.9760329338822316,0.10163684676091399
1.977032950549176,0.09033007952857586
1.9780329672161205,0.03648014212248623
1.979032983883065,0.06005989918365689
1.9800330005500093,0.047808566355822944
1.9810330172169537,0.08081543062332408
1.9820330338838983,0.06045537172196582
1.9830330505508427,0.07238828257691374
1.984033067217787,0.08350360793068952
1.9850330838847317,0.037412405290153494
1.986033100551676,0.06849171132531277
1.9870331172186204,0.05110871868879853
1.988033133885565,0.03503695728332405
1.9890331505525094,0.07030292931078667
1.9900331672194538,0.0903670547182086
1.9910331838863984,0.05169001299240575
1.9920332005533428,0.14051133794920953
1.9930332172202871,0.018578863874608387
1.9940332338872315,0.11305844051894876
1.9950332505541761,0.09444780523567692
1.9960332672211205,0.05646566678340913
1.997033283888065,0.010956298175307091
1.9980333005550095,0.08316753305043285
1.9990333172219539,0.06183683695852388
2.0000333338888985,0.0996729258647179
2.0010333505558426,0.11006765844399223
2.0020333672227872,0.11718739258902008
2.003033383889732,0.12862023300402353
2.004033400556676,0.09222792358475584
2.0050334172236206,0.05433876902977601
2.006033433890565,0.06918964482923758
2.0070334505575094,0.11031140891000407
2.008033467224454,0.013350420255438054
2.0090334838913986,0.1182400941445334
2.0100335005583427,0.11524734352357806
2.0110335172252873,0.11879006404810727
2.0120335338922315,0.06291523257437143
2.013033550559176,0.03104092936663358
2.0140335672261207,0.13194689473136656
2.015033583893065,0.06448905217315844
2.0160336005600095,0.04917723262310484
2.017033617226954,0.043280861891180925
2.0180336338938982,0.12145590381624981
2.019033650560843,0.11651181731131288
2.0200336672277874,0.03526544790553609
2.0210336838947316,0.09282641152518686
2.022033700561676,0.06183647791260151
2.023033717228621,0.09233739077505314
2.024033733895565,0.10604747976654515
2.0250337505625096,0.03126570803130868
2.026033767229454,0.06743254510497501
2.0270337838963983,0.09779341361306043
2.028033800563343,0.04117297387315906
2.0290338172302875,0.07151608080263563
2.0300338338972317,0.09363040514869961
2.0310338505641763,0.11074081255300065
2.032033867231121,0.0967425552833246
2.033033883898065,0.07692753449263824
2.0340339005650097,0.09505793693211262
2.0350339172319543,0.08980773796612451
2.0360339338988984,0.12519638215367912
2.037033950565843,0.05895281388230534
2.038033967232787,0.09568988923677822
2.039033983899732,0.12412427903829096
2.0400340005666764,0.10722907412471891
2.0410340172336205,0.04819595665082106
2.042034033900565,0.13055926056029465
2.0430340505675098,0.06686175656839399
2.044034067234454,0.06435728716676126
2.0450340839013985,0.05138111981365851
2.046034100568343,0.08503152867279937
2.0470341172352873,0.06946585164616137
2.048034133902232,0.10162380121376495
2.0490341505691765,0.054215818321682596
2.0500341672361206,0.12450081783978009
2.0510341839030652,0.08447876631534934
2.05203420057001,0.05807424926283844
2.053034217236954,0.10443164460140598
2.0540342339038986,0.08126649872571438
2.055034250570843,0.09447857671207785
2.0560342672377874,0.12492561273845139
2.057034283904732,0.1043261780924379
2.0580343005716766,0.12024576805772592
2.0590343172386207,0.06973012380020173
2.0600343339055653,0.12082322673807297
2.0610343505725095,0.11949214681452204
2.062034367239454,0.06775297967941228
2.0630343839063987,0.05205516231727156
2.064034400573343,0.058095178835229785
2.0650344172402875,0.04106694612403666
2.066034433907232,0.06800852245164644
2.0670344505741762,0.11843802033938026
2.068034467241121,0.08198287256730308
2.0690344839080654,0.09758186791249787
2.0700345005750096,0.10309515051551038
2.071034517241954,0.06004990843025165
2.072034533908899,0.0746106849212608
2.073034550575843,0.09508256084466289
2.0740345672427876,0.0483320787410508
2.075034583909732,0.062465055011242415
2.0760346005766763,0.06093816249554835
2.077034617243621,0.04797420225477435
2.0780346339105655,0.11821555547039528
2.0790346505775097,0.10602780047254104
2.0800346672444543,0.10087443579356706
2.081034683911399,0.11776892317951212
2.082034700578343,0.05157876701727169
2.0830347172452877,0.05646862626421097
2.0840347339122323,0.13171309645459447
2.0850347505791764,0.06048132393883708
2.086034767246121,0.1052639170339475
2.087034783913065,0.029664020297533556
2.08803480058001,0.04923345870330845
2.0890348172469544,0.05196573842587196
2.0900348339138985,0.1077089003628017
2.091034850580843,0.06957104235300278
2.0920348672477878,0.03228058556495751
2.093034883914732,0.056340182341112384
2.0940349005816765,0.07709742668511078
2.095034917248621,0.08849723363754185
2.0960349339155653,0.07988971261119193
2.09703495058251,0.048281321248429064
2.0980349672494545,0.02742660552941238
2.0990349839163986,0.06396270322132762
2.1000350005833432,0.1158730786558377
2.101035017250288,0.06655292484418744
2.102035033917232,0.08136856574362034
2.1030350505841766,0.10554400320630658
2.104035067251121,0.07069061968982442
2.1050350839180654,0.040865620786111306
2.10603510058501,0.09380074757450974
2.1070351172519546,0.1044438779962344
2.1080351339188987,0.062201044462047994
2.1090351505858433,0.09545724765875406
2.110035167252788,0.06336328586382203
2.111035183919732,0.11685634499546756
2.1120352005866767,0.10975728704988832
2.113035217253621,0.08719545324630495
2.1140352339205655,0.06784445378347716
2.11503525058751,0.09740684404993546
2.1160352672544542,0.05484646490978876
2.117035283921399,0.060567102713994535
2.1180353005883434,0.03567736681946557
2.1190353172552876,0.06913048133650715
2.120035333922232,0.038341873240089475
2.121035350589177,0.0575011737414023
2.122035367256121,0.08474042286993115
2.1230353839230656,0.12629872374214776
2.12403540059001,0.07341498070161709
2.1250354172569543,0.03370696914629771
2.126035433923899,0.07780574493454995
2.1270354505908435,0.10792914115681042
2.1280354672577877,0.05906245088761209
2.1290354839247323,0.06127888165443167
2.130035500591677,0.09733060686652542
2.131035517258621,0.10669412488906352
2.1320355339255657,0.08354302398650143
2.1330355505925103,0.08510967795231096
2.1340355672594544,0.10399786211885842
2.135035583926399,0.03983067495452616
2.136035600593343,0.09080345497708854
2.137035617260288,0.05558484610138686
2.1380356339272324,0.04259118326875567
2.1390356505941766,0.05190583418290538
2.140035667261121,0.06549763103048063
2.1410356839280658,0.07445976452185252
2.14203570059501,0.12901034776645218
2.1430357172619545,0.0360161437233631
2.144035733928899,0.057275233963915456
2.1450357505958433,0.04217770164082104
2.146035767262788,0.10482594321567684
2.1470357839297325,0.0760428373453242
2.1480358005966766,0.10928785002715888
2.1490358172636213,0.050193383574943136
2.150035833930566,0.08507560352061207
2.15103585059751,0.1226411829187005
2.1520358672644546,0.035619626814378566
2.153035883931399,0.03913146394938559
2.1540359005983434,0.04769997173611088
2.155035917265288,0.07659766240547636
2.1560359339322326,0.0655783905052595
2.1570359505991767,0.13310213727071885
2.1580359672661213,0.06496742358287935
2.159035983933066,0.047733784355908054
2.16003600060001,0.08417214840719829
2.1610360172669547,0.011766984031706416
2.162036033933899,0.0689456520357741
2.1630360506008435,0.05214731063865925
2.164036067267788,0.06645328297415526
2.1650360839347322,0.058578459883861414
2.166036100601677,0.08792472716879343
2.1670361172686214,0.05321261953930119
2.1680361339355656,0.10481208526521742
2.16903615060251,0.03573048376572897
2.170036167269455,0.09193052874685868
2.171036183936399,0.06016072581444667
2.1720362006033436,0.08662236462776449
2.173036217270288,0.03128824652967923
2.1740362339372323,0.09715674856305904
2.175036250604177,0.1307327723161948
2.1760362672711215,0.05481432403584195
2.1770362839380657,0.04878286502431735
2.1780363006050103,0.06131056212250424
2.179036317271955,0.09537342816813695
2.180036333938899,0.04803942582371413
2.1810363506058437,0.0978068722940119
2.1820363672727883,0.04334378377535849
2.1830363839397324,0.10021244035525252
2.184036400606677,0.08044536665574364
2.1850364172736216,0.0425433932744588
2.186036433940566,0.1406126238623265
2.1870364506075104,0.11063651859705712
2.1880364672744546,0.0549035474916071
2.189036483941399,0.057994115085837655
2.1900365006083438,0.04945797239188278
2.191036517275288,0.10381041774990361
2.1920365339422325,0.06658620412134296
2.193036550609177,0.041498525306820265
2.1940365672761213,0.08772204431629703
2.195036583943066,0.09183424262631726
2.1960366006100105,0.13227023025458562
2.1970366172769547,0.06725206178201729
2.1980366339438993,0.09812130862750981
2.199036650610844,0.1407825498794988
2.200036667277788,0.04631718807636536
2.2010366839447326,0.12506245299237972
2.2020367006116772,0.09897877491685456
2.2030367172786214,0.1064693720231998
2.204036733945566,0.08162167416989859
2.2050367506125106,0.1194129774537324
2.2060367672794547,0.021941047494207236
2.2070367839463993,0.06658257853603265
2.208036800613344,0.11614085736433875
2.209036817280288,0.04679458394391611
2.2100368339472327,0.03328673531870409
2.211036850614177,0.1102852518275162
2.2120368672811215,0.021052528471555178
2.213036883948066,0.06829367301127211
2.2140369006150102,0.038012885764648674
2.215036917281955,0.05278183877683518
2.2160369339488994,0.07454436844869179
2.2170369506158436,0.07656087388059697
2.218036967282788,0.05937940037656271
2.219036983949733,0.08412538798184442
2.220037000616677,0.07482582253700057
2.2210370172836216,0.076460001847954
2.222037033950566,0.11171298494763482
2.2230370506175103,0.09598782496267219
2.224037067284455,0.11326849313893401
2.2250370839513995,0.05147204590654765
2.2260371006183437,0.09747717471329528
2.2270371172852883,0.11629978970420678
2.228037133952233,0.023022331263748357
2.229037150619177,0.06189821490723341
2.2300371672861217,0.10859562034986325
2.2310371839530663,0.031505867641431526
2.2320372006200104,0.08173571506041187
2.233037217286955,0.12267778693534867
2.2340372339538996,0.12028255522002693
2.235037250620844,0.09590359518440802
2.2360372672877884,0.07733912193545131
2.2370372839547326,0.08883521324914728
2.238037300621677,0.11049257603886871
2.2390373172886218,0.06825725311446129
2.240037333955566,0.09809512689179825
2.2410373506225105,0.0629054884956163
2.242037367289455,0.03533900760127776
2.2430373839563993,0.1067449418536419
2.244037400623344,0.11568066602737226
2.2450374172902885,0.10941630199404205
2.2460374339572327,0.06374069570962268
2.2470374506241773,0.09222827680731951
2.248037467291122,0.0844691557210654
2.249037483958066,0.08407209327643744
2.2500375006250106,0.10793124605569385
2.2510375172919552,0.05495688540444727
2.2520375339588994,0.10440542921039386
2.253037550625844,0.04257128481087716
2.2540375672927886,0.11078939418856049
2.2550375839597327,0.05533972222667467
2.2560376006266774,0.0878464652351045
2.257037617293622,0.07169262631525088
2.258037633960566,0.03377967444621246
2.2590376506275107,0.07533438528479507
2.2600376672944553,0.06317378416891438
2.2610376839613995,0.10720795346847084
2.262037700628344,0.04312370892779107
2.2630377172952882,0.03810632591438798
2.264037733962233,0.05654093043414604
2.2650377506291774,0.09917961759897212
2.2660377672961216,0.0795460114617301
2.267037783963066,0.07963397764233217
2.268037800630011,0.0895617873958431
2.269037817296955,0.07254546058233802
2.2700378339638996,0.07273610317591968
2.271037850630844,0.0497929207950954
2.2720378672977883,0.12004622570542095
2.273037883964733,0.043509015083266905
2.2740379006316775,0.07459364255546176
2.2750379172986217,0.06245845812040689
2.2760379339655663,0.060874551423670695
2.277037950632511,0.055606178627861505
2.278037967299455,0.08558176117279226
2.2790379839663997,0.037869527491784905
2.2800380006333443,0.060492461418892175
2.2810380173002884,0.06101646157884336
2.282038033967233,0.018828029611786794
2.2830380506341776,0.04722632291503358
2.284038067301122,0.06273107480530582
2.2850380839680664,0.11352078488589436
2.2860381006350106,0.0557805897997822
2.287038117301955,0.1270154686216833
2.2880381339688998,0.07709970513616106
2.289038150635844,0.04902216933217149
2.2900381673027885,0.15456553741055903
2.291038183969733,0.03446483804439634
2.2920382006366773,0.10355178915435982
2.293038217303622,0.057393122040339264
2.2940382339705665,0.08705288307233441
2.2950382506375107,0.10596000178958719
2.2960382673044553,0.1140142727530305
2.2970382839714,0.12228103548665813
2.298038300638344,0.0568765963930359
2.2990383173052886,0.07610831592486327
2.3000383339722332,0.1238819086338338
2.3010383506391774,0.09613512031050403
2.302038367306122,0.1071496629514948
2.3030383839730666,0.048351959161266084
2.3040384006400108,0.07655829352808069
2.3050384173069554,0.10948670730904822
2.3060384339739,0.06491388264229883
2.307038450640844,0.028300334621004824
2.3080384673077887,0.10430344116269369
2.3090384839747333,0.11937359771982299
2.3100385006416775,0.10914996984503676
2.311038517308622,0.05792907159679893
2.3120385339755662,0.05307128937335625
2.313038550642511,0.10820435535185519
2.3140385673094555,0.08954480240602683
2.3150385839763996,0.04849800498791915
2.316038600643344,0.05464609388115647
2.317038617310289,0.07079861711291764
2.318038633977233,0.12673357107874114
2.3190386506441776,0.09823482537350474
2.320038667311122,0.10388739698582487
2.3210386839780663,0.10487629975469004
2.322038700645011,0.11104472482213248
2.3230387173119555,0.04244050025954799
2.3240387339788997,0.05515686854507936
2.3250387506458443,0.12584580470163031
2.326038767312789,0.0950185142344106
2.327038783979733,0.06969134170393645
2.3280388006466777,0.10901535636324736
2.3290388173136223,0.07201742283529562
2.3300388339805664,0.0648541653190686
2.331038850647511,0.1242281910160464
2.3320388673144556,0.1164513845435049
2.3330388839814,0.06747541797215005
2.3340389006483444,0.12290418290469902
2.335038917315289,0.08168233607533976
2.336038933982233,0.10515840741433082
2.3370389506491778,0.03885481122389999
2.338038967316122,0.08369293389666489
2.3390389839830665,0.07242114277525848
2.340039000650011,0.04137643458648799
2.3410390173169553,0.08903198757762182
2.3420390339839,0.10079201336234425
2.3430390506508445,0.08140838882197084
2.3440390673177887,0.0932747141130551
2.3450390839847333,0.11055193914730717
2.346039100651678,0.10426652649659127
2.347039117318622,0.07340513181375596
2.3480391339855666,0.05585486945792028
2.3490391506525112,0.03540902068396067
2.3500391673194554,0.04980639998565081
2.3510391839864,0.06829351064116802
2.3520392006533446,0.11115833286664502
2.3530392173202888,0.08779203131053274
2.3540392339872334,0.08601302420090455
2.355039250654178,0.07746665545038818
2.356039267321122,0.05271925423856213
2.3570392839880667,0.10843443409334477
2.3580393006550113,0.11778558494071775
2.3590393173219555,0.10548779167577689
2.3600393339889,0.05739706217538778
2.3610393506558442,0.029953197692482676
2.362039367322789,0.10907011597161956
2.3630393839897335,0.07144076850280387
2.3640394006566776,0.08938825695531545
2.365039417323622,0.09523763209243731
2.366039433990567,0.09666730325546663
2.367039450657511,0.07234356722127115
2.3680394673244556,0.1223655036054327
2.3690394839914,0.0468541542088539
2.3700395006583443,0.07856941144690435
2.371039517325289,0.0350048775615647
2.3720395339922336,0.06907306462351082
2.3730395506591777,0.05325059610419232
2.3740395673261223,0.006651447969462605
2.375039583993067,0.11145134653929778
2.376039600660011,0.08724472115150575
2.3770396173269557,0.10834678407632768
2.3780396339939003,0.12280078740013095
2.3790396506608444,0.048840257786487935
2.380039667327789,0.0925242570737095
2.3810396839947336,0.08502958392616718
2.382039700661678,0.07540915582141178
2.3830397173286224,0.047100001391481926
2.384039733995567,0.0828140271549374
2.385039750662511,0.08586988271436892
2.3860397673294558,0.10452301652328323
2.3870397839964,0.08802928125975011
2.3880398006633445,0.0395645920183304
2.389039817330289,0.08643661672103016
2.3900398339972333,0.027284856183797442
2.391039850664178,0.0820899063384705
2.3920398673311225,0.11228026832488978
2.3930398839980667,0.11462030056446673
2.3940399006650113,0.0761020960551879
2.395039917331956,0.031256153719961446
2.3960399339989,0.11787554230557758
2.3970399506658446,0.058116387496479426
2.3980399673327892,0.034258782333194945
2.3990399839997334,0.09189756218948071
2.400040000666678,0.05038453504407754
2.4010400173336226,0.10886700947301749
2.4020400340005668,0.04121188342144963
2.4030400506675114,0.13969922151776365
2.404040067334456,0.09355575190579526
2.4050400840014,0.07511303684873424
2.4060401006683447,0.06280482585302993
2.4070401173352893,0.10565552217105025
2.4080401340022335,0.0974112193370713
2.409040150669178,0.04996492151602761
2.4100401673361227,0.024288607004169963
2.411040184003067,0.10510793802449983
2.4120402006700115,0.08605941727812041
2.4130402173369556,0.04906527677593697
2.4140402340039,0.04260450890888104
2.415040250670845,0.0592680637789985
2.416040267337789,0.06943566871469227
2.4170402840047336,0.04114159235143312
2.418040300671678,0.11964577911448118
2.4190403173386223,0.1148718910551417
2.420040334005567,0.1201919864379682
2.4210403506725116,0.10085155985566303
2.4220403673394557,0.08514034438559508
2.4230403840064003,0.030448672158913257
2.424040400673345,0.09250724392360557
2.425040417340289,0.06669462689922198
2.4260404340072337,0.04056718186807596
2.4270404506741783,0.123386552322343
2.4280404673411224,0.12164531686677958
2.429040484008067,0.07307423232211781
2.4300405006750116,0.12212938369755945
2.431040517341956,0.09607079129975185
2.4320405340089004,0.047589202995838034
2.433040550675845,0.04018592804042875
2.434040567342789,0.09349606245047004
2.4350405840097338,0.07397275228580863
2.436040600676678,0.10342939065515841
2.4370406173436225,0.10250890676451285
2.438040634010567,0.041936794472872796
2.4390406506775113,0.02408970919982897
2.440040667344456,0.06445493962732976
2.4410406840114005,0.07890823330722053
2.4420407006783447,0.06142257412636086
2.4430407173452893,0.1301105993828538
2.444040734012234,0.11790658979649551
2.445040750679178,0.1388163827824553
2.4460407673461226,0.050775327250017516
2.4470407840130672,0.09853679800179484
2.4480408006800114,0.040199328605106326
2.449040817346956,0.05127290086956867
2.4500408340139006,0.058471818547597205
2.4510408506808448,0.13184308571526532
2.4520408673477894,0.10975436734010843
2.453040884014734,0.06333658941090034
2.454040900681678,0.06528429355061378
2.4550409173486227,0.09679718166053204
2.4560409340155673,0.10616547737054383
2.4570409506825115,0.08474900864483867
2.458040967349456,0.09624089729853866
2.4590409840164007,0.10652712844191702
2.460041000683345,0.0654521134930786
2.4610410173502895,0.05119424720759757
2.4620410340172336,0.12854499766440747
2.4630410506841782,0.049493120177248606
2.464041067351123,0.048852612040955035
2.465041084018067,0.06911053008376183
2.4660411006850116,0.06854634163043141
2.467041117351956,0.03751649447334439
2.4680411340189004,0.07643245835963564
2.469041150685845,0.10375619188629348
2.4700411673527896,0.051650204409563624
2.4710411840197337,0.06903417166046515
2.4720412006866783,0.07994877960338043
2.473041217353623,0.10183815560019895
2.474041234020567,0.06400840409547584
2.4750412506875117,0.046815952143172405
2.4760412673544563,0.059294607009696576
2.4770412840214004,0.015343050725919209
2.478041300688345,0.12472391886641722
2.4790413173552897,0.10504014951189526
2.480041334022234,0.09652933362791244
2.4810413506891784,0.12335269164917159
2.482041367356123,0.1106592096369374
2.483041384023067,0.038644241731337174
2.484041400690012,0.09100144793528629
2.4850414173569564,0.07662435445150917
2.4860414340239005,0.07261005657464963
2.487041450690845,0.08069763646786965
2.4880414673577893,0.10973536046557769
2.489041484024734,0.12687161686623596
2.4900415006916785,0.09464134927021131
2.4910415173586227,0.0675927162724711
2.4920415340255673,0.09463501840504104
2.493041550692512,0.109486631895382
2.494041567359456,0.1016498621153128
2.4950415840264006,0.11169952832746835
2.4960416006933452,0.05500668942663831
2.4970416173602894,0.0676109316943575
2.498041634027234,0.07722192344804488
2.4990416506941786,0.06260088193048122
2.5000416673611228,0.02101204502213143
2.5010416840280674,0.054762281231922554
2.502041700695012,0.08146426305352833
2.503041717361956,0.09252223665521653
2.5040417340289007,0.04355016392173284
2.5050417506958453,0.044216671388985225
2.5060417673627895,0.07446995687660253
2.507041784029734,0.08510286314754546
2.5080418006966787,0.02281263589502553
2.509041817363623,0.06063628375896166
2.5100418340305675,0.08632013108363333
2.5110418506975116,0.055415620222516185
2.5120418673644562,0.04238429454519899
2.513041884031401,0.10822312180384351
2.514041900698345,0.06600486031409344
2.5150419173652896,0.029442710323235085
2.516041934032234,0.05040243571908435
2.5170419506991784,0.0690259905959738
2.518041967366123,0.044791884646007016
2.5190419840330676,0.09087750797513289
2.5200420007000117,0.09438755438890217
2.5210420173669563,0.06568017615870958
2.522042034033901,0.08509585731453116
2.523042050700845,0.12888251667323364
2.5240420673677897,0.13722221091363127
2.5250420840347343,0.10215134484622465
2.5260421007016785,0.06455095227749873
2.527042117368623,0.047425573951776205
2.5280421340355677,0.08884741616686977
2.529042150702512,0.05662379551881412
2.5300421673694564,0.09685402896524095
2.531042184036401,0.03965659114235148
2.532042200703345,0.0812543115800993
2.53304221737029,0.10154634552188464
2.5340422340372344,0.05701943776535259
2.5350422507041785,0.06818840489932282
2.536042267371123,0.054259481413652846
2.5370422840380673,0.11721080978804199
2.538042300705012,0.11752320152266668
2.5390423173719565,0.10867375562125023
2.5400423340389007,0.11165999087079748
2.5410423507058453,0.08322199348654226
2.54204236737279,0.11911707166929864
2.543042384039734,0.10773076201705484
2.5440424007066786,0.11034070152341682
2.5450424173736232,0.035770339164193254
2.5460424340405674,0.029506748283849357
2.547042450707512,0.03808346975566281
2.5480424673744566,0.032146394371724896
2.5490424840414008,0.03790016695653303
2.5500425007083454,0.04413234360596984
2.55104251737529,0.12001958915138147
2.552042534042234,0.03743170959543207
2.5530425507091787,0.10304957925783052
2.5540425673761233,0.07495481406583392
2.5550425840430675,0.06125134311878799
2.556042600710012,0.06362613741769099
2.5570426173769567,0.07890352070911846
2.558042634043901,0.04435879684756015
2.5590426507108455,0.0934567570186444
2.5600426673777896,0.05247946294788286
2.5610426840447342,0.04897389724761593
2.562042700711679,0.07944658428653838
2.563042717378623,0.0882333130040354
2.5640427340455676,0.1034089779495868
2.565042750712512,0.0989864428392634
2.5660427673794564,0.05917724756756566
2.567042784046401,0.11269307192524583
2.5680428007133456,0.04280265207034126
2.5690428173802897,0.0995908025116774
2.5700428340472343,0.07403188031667585
2.571042850714179,0.09281696577539236
2.572042867381123,0.08333131316587389
2.5730428840480677,0.06606453963031608
2.5740429007150123,0.11820507701945504
2.5750429173819565,0.11736335276784349
2.576042934048901,0.0465445412356919
2.5770429507158457,0.08759572502334109
2.57804296738279,0.10688567538523301
2.5790429840497344,0.058025198373994405
2.580043000716679,0.0327652129614511
2.581043017383623,0.05959761173743737
2.582043034050568,0.12180860111263819
2.5830430507175124,0.06766057637480369
2.5840430673844565,0.05806904490811811
2.585043084051401,0.09940312128673913
2.5860431007183453,0.08832833272016456
2.58704311738529,0.03330589535654837
2.5880431340522345,0.10438302240973227
2.5890431507191787,0.05467312498994481
2.5900431673861233,0.04125614775542284
2.591043184053068,0.09800664402659247
2.592043200720012,0.09178382715070582
2.5930432173869566,0.06876869204687416
2.5940432340539012,0.0967915698894877
2.5950432507208454,0.10109273686613428
2.59604326738779,0.09397194703875263
2.5970432840547346,0.031690568339417545
2.5980433007216788,0.06345389711911964
2.5990433173886234,0.07411853865359468
2.600043334055568,0.03893440049117927
2.601043350722512,0.08588023626905264
2.6020433673894567,0.1053418586093724
2.6030433840564013,0.08095232276054347
2.6040434007233455,0.06819138742869287
2.60504341739029,0.13050445966432248
2.6060434340572347,0.04602321092695595
2.607043450724179,0.07863978069463182
2.6080434673911235,0.11263803986341704
2.609043484058068,0.06717343638900773
2.6100435007250122,0.10375798477660185
2.611043517391957,0.05479436173070712
2.612043534058901,0.14728702715067704
2.6130435507258456,0.08628544560737723
2.61404356739279,0.05823217206299103
2.6150435840597344,0.035530618971977145
2.616043600726679,0.05574470906711091
2.6170436173936236,0.07292666944505488
2.6180436340605677,0.05857335620423259
2.6190436507275123,0.06885367976791539
2.620043667394457,0.08101004651420306
2.621043684061401,0.103855902950177
2.6220437007283457,0.10662432864246442
2.6230437173952903,0.0880804490183237
2.6240437340622345,0.05332385613942052
2.625043750729179,0.05582962978593206
2.6260437673961237,0.07991225620684828
2.627043784063068,0.05425949081517294
2.6280438007300124,0.06825650688461495
2.629043817396957,0.11722905635493894
2.630043834063901,0.05013392594494911
2.631043850730846,0.1291339155348759
2.6320438673977904,0.053859570817929185
2.6330438840647346,0.13214296224187969
2.634043900731679,0.04685575931128015
2.6350439173986233,0.059049066182683366
2.636043934065568,0.08506395891050227
2.6370439507325125,0.12375953259944486
2.6380439673994567,0.09960085278474338
2.6390439840664013,0.09088445252056127
2.640044000733346,0.04885575602094512
2.64104401740029,0.043247903454539056
2.6420440340672346,0.13736837442519553
2.6430440507341793,0.06437288742365677
2.6440440674011234,0.04620844710788421
2.645044084068068,0.09515195899027201
2.6460441007350126,0.09613675465963731
2.6470441174019568,0.09629926634836963
2.6480441340689014,0.10953613008166402
2.649044150735846,0.11357749781722534
2.65004416740279,0.05677628327086334
2.6510441840697347,0.10074476697595218
2.6520442007366793,0.10698496605705614
2.6530442174036235,0.029655850133694144
2.654044234070568,0.056796565635561
2.6550442507375127,0.09808732387090183
2.656044267404457,0.09903008602240226
2.6570442840714015,0.0610432426486146
2.658044300738346,0.0486202575997241
2.6590443174052902,0.03103227614866779
2.660044334072235,0.06375429362714806
2.661044350739179,0.11836958873515054
2.6620443674061236,0.05810672068557973
2.663044384073068,0.0775830510573897
2.6640444007400124,0.11390653596699488
2.665044417406957,0.05556385249257144
2.6660444340739016,0.1084992602303985
2.6670444507408457,0.09627400753117878
2.6680444674077903,0.1160354545520543
2.669044484074735,0.06578320735867649
2.670044500741679,0.04692491746681589
2.6710445174086237,0.08507047137765023
2.6720445340755683,0.053258264816969846
2.6730445507425125,0.12798523367651754
2.674044567409457,0.08467611287306664
2.6750445840764017,0.04444083226467011
2.676044600743346,0.09023033929899452
2.6770446174102904,0.10863523758977148
2.678044634077235,0.026298137444516714
2.679044650744179,0.05185084458886214
2.680044667411124,0.08020366722174133
2.6810446840780684,0.05277578722971702
2.6820447007450126,0.060234564181345276
2.683044717411957,0.12054082841132437
2.6840447340789018,0.07740703786081614
2.685044750745846,0.05180805605240303
2.6860447674127905,0.11984891301810766
2.6870447840797347,0.14102610017217762
2.6880448007466793,0.036679470079055955
2.689044817413624,0.05559434240275006
2.690044834080568,0.09591033067087776
2.6910448507475127,0.07633902208434884
2.6920448674144573,0.08096904942690761
2.6930448840814014,0.11756311251392706
2.694044900748346,0.027173412126319903
2.6950449174152906,0.03786081929425816
2.696044934082235,0.027973704460408134
2.6970449507491794,0.0818048891367611
2.698044967416124,0.12448285133283066
2.699044984083068,0.03371178764204143
2.7000450007500127,0.11038297776619509
2.7010450174169574,0.07030164747563658
2.7020450340839015,0.11668231641310071
2.703045050750846,0.10397736780548479
2.7040450674177907,0.037827131684546746
2.705045084084735,0.03300856428755124
2.7060451007516795,0.05175482740011822
2.707045117418624,0.05146560234405159
2.7080451340855682,0.08781749341395098
2.709045150752513,0.07039541327822182
2.710045167419457,0.11923994312527783
2.7110451840864016,0.053928872434255204
2.712045200753346,0.06600476993705084
2.7130452174202904,0.08022025310333575
2.714045234087235,0.09840539740766636
2.7150452507541796,0.1001160382439118
2.7160452674211237,0.07309982970823732
2.7170452840880683,0.055404393366068325
2.718045300755013,0.04256836199408068
2.719045317421957,0.05180065419624435
2.7200453340889017,0.11991365184450707
2.7210453507558463,0.0629671467763817
2.7220453674227905,0.1061266882940633
2.723045384089735,0.06734031011250614
2.7240454007566797,0.0997575408478887
2.725045417423624,0.0737672540007465
2.7260454340905684,0.11231833789676537
2.727045450757513,0.017497395878196095
2.728045467424457,0.06734723522961852
2.729045484091402,0.1124463769666876
2.7300455007583464,0.08767080595662544
2.7310455174252906,0.06017423187093817
2.732045534092235,0.042346725237891424
2.7330455507591798,0.057395675673277205
2.734045567426124,0.08516068319029313
2.7350455840930685,0.10628783932105466
2.7360456007600127,0.09608144931267112
2.7370456174269573,0.11056404104408171
2.738045634093902,0.10722707810245627
2.739045650760846,0.03480527145450225
2.7400456674277907,0.0733007581215634
2.7410456840947353,0.07582467737686059
2.7420457007616794,0.06155358818754558
2.743045717428624,0.0901116621411635
2.7440457340955686,0.11693104301368519
2.745045750762513,0.11691795316982818
2.7460457674294574,0.08078337475304224
2.747045784096402,0.04897736426803374
2.748045800763346,0.14538929849233206
2.7490458174302908,0.024628031290611814
2.7500458340972354,0.09343044033160826
2.7510458507641795,0.11301251345106947
2.752045867431124,0.10993400204615542
2.7530458840980687,0.03414914112986309
2.754045900765013,0.09747715598196095
2.7550459174319575,0.043297242789138865
2.756045934098902,0.05898517814058036
2.7570459507658462,0.05597225500135271
2.758045967432791,0.05468024766209638
2.7590459840997354,0.07998394764118219
2.7600460007666796,0.05021759021605202
2.761046017433624,0.13466311549173965
2.7620460341005684,0.05205469296325979
2.763046050767513,0.045863490478672705
2.7640460674344576,0.09551283752197791
2.7650460841014017,0.05149739067446205
2.7660461007683463,0.10134894121453272
2.767046117435291,0.022269646722304894
2.768046134102235,0.0834960771860708
2.7690461507691797,0.14486051038331083
2.7700461674361243,0.11755110269095383
2.7710461841030685,0.10943495313314303
2.772046200770013,0.10857938501419899
2.7730462174369577,0.09605165036014295
2.774046234103902,0.11941914178580178
2.7750462507708464,0.11608136000636177
2.776046267437791,0.10379073281839526
2.777046284104735,0.1288354967626982
2.77804630077168,0.09389603960192593
2.7790463174386244,0.09865990769530139
2.7800463341055686,0.05860283844696856
2.781046350772513,0.06902590000622455
2.7820463674394578,0.06803097437609945
2.783046384106402,0.056367568400305844
2.7840464007733465,0.04534326196942726
2.7850464174402907,0.08360511506886495
2.7860464341072353,0.0786570762811085
2.78704645077418,0.08187372171870173
2.788046467441124,0.02598778687247273
2.7890464841080687,0.05576246604837485
2.7900465007750133,0.14863031115452227
2.7910465174419574,0.08667873769498761
2.792046534108902,0.08980287043899793
2.7930465507758466,0.11263551225677958
2.794046567442791,0.03585856547517531
2.7950465841097354,0.03006449128039496
2.79604660077668,0.05925402283274852
2.797046617443624,0.09097431577525268
2.7980466341105688,0.05795937890781269
2.7990466507775134,0.042720066597725065
2.8000466674444575,0.09569260138459598
2.801046684111402,0.05544618690868684
2.8020467007783467,0.0759601457400648
2.803046717445291,0.11324007325232581
2.8040467341122355,0.10781714125483785
2.80504675077918,0.08760731780338804
2.8060467674461242,0.08870439994829234
2.807046784113069,0.10795718131290902
2.8080468007800135,0.0703400551138585
2.8090468174469576,0.07879833220529242
2.810046834113902,0.10906028852591844
2.8110468507808464,0.06198136243699104
2.812046867447791,0.10061345341177473
2.8130468841147356,0.029535705421922853
2.8140469007816797,0.09533250859731983
2.8150469174486243,0.13113562236295837
2.816046934115569,0.1272121318183611
2.817046950782513,0.11682100052769742
2.8180469674494577,0.10505664059040606
2.8190469841164023,0.09049108684211166
2.8200470007833465,0.05475866847450236
2.821047017450291,0.08813084670819375
2.8220470341172357,0.11872640748013417
2.82304705078418,0.07057447511882615
2.8240470674511244,0.11578986544447517
2.825047084118069,0.08676622259318761
2.826047100785013,0.0482422888220654
2.827047117451958,0.10002844530531528
2.8280471341189024,0.07873234252314541
2.8290471507858466,0.1188895777887445
2.830047167452791,0.02280609236548855
2.8310471841197358,0.0633202061746323
2.83204720078668,0.03186886523887111
2.8330472174536245,0.10887057817931274
2.834047234120569,0.11734762138867445
2.8350472507875133,0.06666913031808218
2.836047267454458,0.10030947852609874
2.837047284121402,0.05457505802938904
2.8380473007883467,0.03251842036810266
2.8390473174552913,0.11787403582473352
2.8400473341222354,0.11597090576062082
2.84104735078918,0.06786084799716648
2.8420473674561246,0.0774522129400458
2.843047384123069,0.06847321408262552
2.8440474007900134,0.037382573817156754
2.845047417456958,0.10786588297999511
2.846047434123902,0.06172066764331422
2.8470474507908468,0.07785488516629283
2.8480474674577914,0.13038152317326626
2.8490474841247355,0.0930348517332966
2.85004750079168,0.09932040317909839
2.8510475174586247,0.08242236316625098
2.852047534125569,0.027324227931319046
2.8530475507925135,0.06210719471040302
2.854047567459458,0.07020818012150817
2.8550475841264022,0.11254074438576404
2.856047600793347,0.08255101412355334
2.8570476174602915,0.10084685189188038
2.8580476341272356,0.11672095283387235
2.85904765079418,0.05322381612630657
2.8600476674611244,0.08630904800320721
2.861047684128069,0.05010631181011866
2.8620477007950136,0.10862074443124761
2.8630477174619577,0.12407461762467945
2.8640477341289023,0.08147562146469704
2.865047750795847,0.10732231470271443
2.866047767462791,0.07477938556976332
2.8670477841297357,0.12388311166522828
2.8680478007966803,0.06682571229748661
2.8690478174636245,0.06351992593747503
2.870047834130569,0.029096819983018912
2.8710478507975137,0.031929216537639575
2.872047867464458,0.09575910604742333
2.8730478841314024,0.05905448326914385
2.874047900798347,0.08884439508335767
2.875047917465291,0.06157736154625438
2.876047934132236,0.06301724301384516
2.8770479507991804,0.12757962504940504
2.8780479674661246,0.03961198773368642
2.879047984133069,0.09157658438249615
2.8800480008000138,0.08576225405811269
2.881048017466958,0.0367017687440325
2.8820480341339025,0.04826018172095954
2.883048050800847,0.051931400383621484
2.8840480674677913,0.10897805340286382
2.885048084134736,0.08477853617867444
2.88604810080168,0.11342881999607594
2.8870481174686247,0.05780694939529109
2.8880481341355693,0.08390897685063939
2.8890481508025134,0.0538955645716622
2.890048167469458,0.11765981084060409
2.8910481841364026,0.04768543497496494
2.892048200803347,0.10133680217053756
2.8930482174702914,0.03863216522875975
2.894048234137236,0.06841825276958974
2.89504825080418,0.0483879712755697
2.8960482674711248,0.0708849283175016
2.8970482841380694,0.0761252010805254
2.8980483008050135,0.13476269826065843
2.899048317471958,0.056465988432035666
2.9000483341389027,0.07206133636115965
2.901048350805847,0.020924437320120573
2.9020483674727915,0.060316684374677604
2.903048384139736,0.12652692125525894
2.9040484008066803,0.05812354060154443
2.905048417473625,0.08859914605887273
2.9060484341405695,0.11438488781226257
2.9070484508075136,0.09582792827714158
2.908048467474458,0.06486527323366846
2.909048484141403,0.0750238716024629
2.910048500808347,0.05793348888196279
2.9110485174752916,0.13122763331525972
2.9120485341422357,0.09309375998028802
2.9130485508091803,0.06892740941532294
2.914048567476125,0.08730786018430516
2.915048584143069,0.12039762854034161
2.9160486008100137,0.11269519119449889
2.9170486174769583,0.043308066450976
2.9180486341439025,0.08471955439944938
2.919048650810847,0.054878939300117724
2.9200486674777917,0.12227972156440776
2.921048684144736,0.04454784403113662
2.9220487008116804,0.11562100494530067
2.923048717478625,0.040043236221303805
2.924048734145569,0.10455658715098703
2.925048750812514,0.07465808125556796
2.9260487674794584,0.05451838882829403
2.9270487841464026,0.04424959892305127
2.928048800813347,0.03211275940424417
2.9290488174802918,0.11906162811179022
2.930048834147236,0.04128196889758795
2.9310488508141805,0.04457377055738595
2.932048867481125,0.04287996506678046
2.9330488841480693,0.08044176733479201
2.934048900815014,0.10355596366198484
2.935048917481958,0.09745039545288904
2.9360489341489027,0.08277727279101463
2.9370489508158473,0.14277276236116437
2.9380489674827914,0.08989509924097855
2.939048984149736,0.1270448560078625
2.9400490008166806,0.10913811361219104
2.941049017483625,0.12044666452252288
2.9420490341505694,0.11770801481904225
2.943049050817514,0.028010512615061885
2.944049067484458,0.11656071165797023
2.9450490841514028,0.037801544691754146
2.9460491008183474,0.06789261917055682
2.9470491174852915,0.055140463121893926
2.948049134152236,0.07173256860299018
2.9490491508191807,0.07727886044678182
2.950049167486125,0.02898222001891388
2.9510491841530695,0.10079332321448714
2.952049200820014,0.08741237422082689
2.9530492174869583,0.09740150114030723
2.954049234153903,0.09653857198828344
2.9550492508208475,0.04077180276143113
2.9560492674877916,0.10995874155493826
2.9570492841547362,0.10318437543922254
2.958049300821681,0.1027571666567408
2.959049317488625,0.027501843583025005
2.9600493341555696,0.05745723863565141
2.9610493508225137,0.08446087931104317
2.9620493674894584,0.12642005639565354
2.963049384156403,0.03739823068357332
2.964049400823347,0.029045218037658686
2.9650494174902917,0.06095492817597069
2.9660494341572363,0.08704940931572543
2.9670494508241805,0.1110438878904841
2.968049467491125,0.10595582253074175
2.9690494841580697,0.12091432414299248
2.970049500825014,0.11632962308899682
2.9710495174919584,0.1072826692732673
2.972049534158903,0.060023609170078
2.973049550825847,0.08488887231444045
2.974049567492792,0.07972535381555788
2.9750495841597364,0.040201561503986
2.9760496008266806,0.05780668098261073
2.977049617493625,0.06956009518829516
2.97804963416057,0.10300682173149797
2.979049650827514,0.07616310738630527
2.9800496674944585,0.08580538239103809
2.981049684161403,0.10358635952869563
2.9820497008283473,0.04015495988163316
2.983049717495292,0.096002934950499
2.9840497341622365,0.024808765262599876
2.9850497508291807,0.10438421540642495
2.9860497674961253,0.12378491662305341
2.9870497841630694,0.020763770348894626
2.988049800830014,0.04608799571524691
2.9890498174969586,0.11424651462158054
2.990049834163903,0.0349916950907355
2.9910498508308474,0.06128358045607891
2.992049867497792,0.06839951124619552
2.993049884164736,0.03409850648739233
2.9940499008316808,0.05101935814249249
2.9950499174986254,0.13940932876130652
2.9960499341655695,0.08603558625874239
2.997049950832514,0.03799559925768227
2.9980499674994587,0.0859056930005215
2.999049984166403,0.08613554516041189
3.0000500008333475,0.1089229170326139
3.001050017500292,0.09890675379592702
3.0020500341672363,0.06916792726085395
3.003050050834181,0.08463452477780849
3.0040500675011255,0.10638722078882835
3.0050500841680696,0.04488240535348748
3.0060501008350142,0.10249400505562083
3.007050117501959,0.06557611406338963
3.008050134168903,0.028411539945637866
3.0090501508358476,0.08667883458994774
3.0100501675027918,0.030086851382159746
3.0110501841697364,0.07783311871022501
