Time,Amplitude
0.0,0.042472868107551826
0.0010000166669444492,0.08976599155432584
0.0020000333338888983,0.1340462984596868
0.0030000500008333475,0.10870690586855912
0.004000066667777797,0.04777469705715251
0.005000083334722245,0.03688028189584446
0.006000100001666695,0.027777266341457114
0.0070001166686111446,0.08250839071548853
0.008000133335555593,0.05256598507130977
0.009000150002500042,0.027000208191556414
0.01000016666944449,0.07873407894177926
0.011000183336388941,0.07295660293919763
0.01200020000333339,0.12153979380718691
0.013000216670277839,0.02731456114336977
0.014000233337222289,0.05615808484244158
0.015000250004166738,0.05543437338499835
0.016000266671111187,0.0677225070952687
0.017000283338055637,0.04822574863265103
0.018000300005000084,0.07956741315399428
0.019000316671944534,0.10279626888914957
0.02000033333888898,0.07122805844117999
0.021000350005833432,0.053398068389046954
0.022000366672777882,0.0816503055332009
0.02300038333972233,0.08583500158217217
0.02400040000666678,0.03090426884177956
0.02500041667361123,0.09318329802559437
0.026000433340555677,0.02765504286206877
0.027000450007500128,0.09599028156753203
0.028000466674444578,0.0610196925657782
0.029000483341389025,0.08171131646840647
0.030000500008333476,0.10311821716315181
0.031000516675277923,0.12569120733167682
0.03200053334222237,0.13685708398162388
0.033000550009166824,0.07819260506188998
0.034000566676111274,0.068670704089877
0.03500058334305572,0.06512387639846651
0.03600060001000017,0.13245522892749298
0.03700061667694462,0.04838802811287839
0.03800063334388907,0.1367727003146907
0.03900065001083352,0.035774451610761676
0.04000066667777796,0.08358237979315448
0.04100068334472241,0.06285876806313581
0.042000700011666864,0.043638920083456996
0.043000716678611314,0.13083684014269054
0.044000733345555765,0.11034458140841771
0.045000750012500215,0.07791323096255469
0.04600076667944466,0.08442873461610345
0.04700078334638911,0.029335491673598155
0.04800080001333356,0.10026796777829665
0.04900081668027801,0.09117457746467417
0.05000083334722246,0.09352910500332937
0.051000850014166904,0.0980419717946174
0.052000866681111355,0.08055579172394918
0.053000883348055805,0.056897224629717275
0.054000900015000255,0.04545720214494354
0.055000916681944706,0.04438171558818687
0.056000933348889156,0.12423409488263058
0.0570009500158336,0.12892572455834078
0.05800096668277805,0.12258778060871278
0.0590009833497225,0.10151446916708731
0.06000100001666695,0.10111067073581487
0.0610010166836114,0.06354744197443934
0.062001033350555845,0.10970093699293859
0.0630010500175003,0.07539576193464173
0.06400106668444475,0.052064077863232985
0.0650010833513892,0.10326054020756209
0.06600110001833365,0.10734107265982054
0.0670011166852781,0.06142312964731141
0.06800113335222255,0.06049562894871721
0.069001150019167,0.0805527541619909
0.07000116668611144,0.12969047128778896
0.07100118335305589,0.11433964626408219
0.07200120002000034,0.09712096551112624
0.07300121668694479,0.08195504340732004
0.07400123335388924,0.04271447927618363
0.07500125002083369,0.129978381214633
0.07600126668777814,0.03300679916380002
0.07700128335472259,0.12826349083961658
0.07800130002166704,0.08655251173060863
0.07900131668861149,0.08020925764916466
0.08000133335555593,0.03454007423340364
0.08100135002250038,0.05629695007339909
0.08200136668944483,0.11708228615415259
0.08300138335638928,0.1012963136441959
0.08400140002333373,0.02602857657244024
0.08500141669027818,0.07761578458314342
0.08600143335722263,0.06281333875018327
0.08700145002416708,0.12962655290967942
0.08800146669111153,0.062230953750650644
0.08900148335805598,0.11858619824653417
0.09000150002500043,0.0648764297984713
0.09100151669194487,0.05169350624123476
0.09200153335888932,0.0793619767404628
0.09300155002583377,0.07471024441673588
0.09400156669277822,0.11187047808128216
0.09500158335972267,0.027801111415432435
0.09600160002666712,0.07406108557183098
0.09700161669361157,0.05394011540147804
0.09800163336055602,0.08212411232311942
0.09900165002750047,0.09892957142873957
0.10000166669444492,0.06942643927842795
0.10100168336138937,0.07844079617436887
0.10200170002833381,0.07901136983863026
0.10300171669527826,0.025532519471397116
0.10400173336222271,0.11401685771549781
0.10500175002916716,0.06250863480940401
0.10600176669611161,0.08812311491075696
0.10700178336305606,0.1037954391390462
0.10800180003000051,0.07519676239486577
0.10900181669694496,0.03515154899189753
0.11000183336388941,0.0590182247423206
0.11100185003083386,0.0368333522262098
0.11200186669777831,0.08729958200074965
0.11300188336472275,0.10920102288215111
0.1140019000316672,0.09831028893327338
0.11500191669861165,0.061301683886728214
0.1160019333655561,0.05308010565351231
0.11700195003250055,0.07597364440397986
0.118001966699445,0.09447678078559205
0.11900198336638945,0.09872198616555697
0.1200020000333339,0.12445526501755352
0.12100201670027835,0.12897112362492383
0.1220020333672228,0.13982214867691248
0.12300205003416724,0.05942887851969887
0.12400206670111169,0.07737676671159234
0.12500208336805615,0.04253031490805197
0.1260021000350006,0.08623194534282572
0.12700211670194506,0.11885768474642515
0.1280021333688895,0.07626605994838861
0.12900215003583393,0.05917327567665455
0.1300021667027784,0.06591635618320703
0.13100218336972283,0.022371757194879965
0.1320022000366673,0.09298015377214104
0.13300221670361173,0.048610270370675494
0.1340022333705562,0.07172275596135734
0.13500225003750063,0.10195495020170645
0.1360022667044451,0.09603055104640601
0.13700228337138953,0.11466452284118137
0.138002300038334,0.11507052114491802
0.13900231670527843,0.03925365112840869
0.14000233337222287,0.07683883484440318
0.14100235003916733,0.05329328496091655
0.14200236670611177,0.07036045149395086
0.14300238337305624,0.07415266857174221
0.14400240004000067,0.11864475710200888
0.14500241670694514,0.10009818002495113
0.14600243337388957,0.084681407900844
0.14700245004083404,0.0749423810823271
0.14800246670777847,0.10805156972611112
0.14900248337472294,0.05178606903577225
0.15000250004166737,0.03203692667640045
0.1510025167086118,0.044974900481122376
0.15200253337555628,0.07625659102355473
0.1530025500425007,0.03386974386013444
0.15400256670944518,0.05548144109211792
0.1550025833763896,0.05248184477700637
0.15600260004333408,0.09542161479351731
0.15700261671027851,0.05789545643293646
0.15800263337722298,0.04446992478858208
0.15900265004416742,0.12628075133443106
0.16000266671111185,0.1132888799104214
0.16100268337805632,0.08719742632945593
0.16200270004500075,0.12428100815606172
0.16300271671194522,0.0779422932017897
0.16400273337888965,0.07490965513457469
0.16500275004583412,0.060444350209981096
0.16600276671277855,0.05301814338741032
0.16700278337972302,0.024476307687893807
0.16800280004666746,0.13905906767633683
0.16900281671361192,0.09526729318634414
0.17000283338055636,0.10484793688318861
0.1710028500475008,0.03066951698714245
0.17200286671444526,0.07409419996296973
0.1730028833813897,0.12956755854535115
0.17400290004833416,0.04895548919975032
0.1750029167152786,0.056625438425111724
0.17600293338222306,0.0785421706455113
0.1770029500491675,0.09552283795682971
0.17800296671611196,0.07866767797335542
0.1790029833830564,0.06976256271963815
0.18000300005000086,0.036461421264507014
0.1810030167169453,0.036261755343446694
0.18200303338388973,0.08962333493601643
0.1830030500508342,0.09947767502301395
0.18400306671777863,0.0745781886844509
0.1850030833847231,0.09425659670748214
0.18600310005166754,0.12474676992844323
0.187003116718612,0.10974824513729613
0.18800313338555644,0.06046328040348227
0.1890031500525009,0.10478493624197364
0.19000316671944534,0.09329081159440987
0.1910031833863898,0.059427159425840904
0.19200320005333424,0.09460060532904935
0.19300321672027868,0.12350699008744206
0.19400323338722314,0.052335012530444626
0.19500325005416758,0.11162225750938481
0.19600326672111204,0.08344904180491568
0.19700328338805648,0.09498218467516785
0.19800330005500094,0.13948147809243988
0.19900331672194538,0.12976345440063708
0.20000333338888984,0.10999598632833629
0.20100335005583428,0.11385106541257468
0.20200336672277874,0.07197515079839491
0.20300338338972318,0.07876948685916997
0.20400340005666762,0.05441775983672782
0.20500341672361208,0.103350155424803
0.20600343339055652,0.11257004214182534
0.20700345005750098,0.10753097026467254
0.20800346672444542,0.1360017861781134
0.20900348339138988,0.04015912674843787
0.21000350005833432,0.09529837206775359
0.21100351672527878,0.033899401680412625
0.21200353339222322,0.025332071817636047
0.21300355005916768,0.08592451209882533
0.21400356672611212,0.13651867599332346
0.21500358339305656,0.10305308686891929
0.21600360006000102,0.032756780341423576
0.21700361672694546,0.07586777770670036
0.21800363339388992,0.09178919329628439
0.21900365006083436,0.07012422986089754
0.22000366672777882,0.1228454642382179
0.22100368339472326,0.08187941872013234
0.22200370006166772,0.04544473844386001
0.22300371672861216,0.038969892824812925
0.22400373339555663,0.08125638753555836
0.22500375006250106,0.04998920952914687
0.2260037667294455,0.10059688371662902
0.22700378339638996,0.09536375675810303
0.2280038000633344,0.10505563732837592
0.22900381673027886,0.05282331961304644
0.2300038333972233,0.08125227462634757
0.23100385006416777,0.07432627254815326
0.2320038667311122,0.0995411393772048
0.23300388339805667,0.12152213290941144
0.2340039000650011,0.05366127916552403
0.23500391673194554,0.08286032968170695
0.23600393339889,0.06625493940268895
0.23700395006583444,0.08621366260678273
0.2380039667327789,0.09733266752710484
0.23900398339972334,0.14398533089608562
0.2400040000666678,0.11138168792903733
0.24100401673361224,0.13515976460921433
0.2420040334005567,0.09341432419946295
0.24300405006750114,0.08659969358679147
0.2440040667344456,0.07714107977847985
0.24500408340139004,0.06273685585439766
0.24600410006833448,0.028088270384716646
0.24700411673527894,0.05305641347935272
0.24800413340222338,0.13545039415482377
0.24900415006916785,0.06453581366141367
0.2500041667361123,0.09392624031343597
0.25100418340305675,0.07110925148414632
0.2520042000700012,0.12324538752160424
0.2530042167369456,0.08526230038991052
0.2540042334038901,0.11883723584408169
0.25500425007083455,0.056998277953609844
0.256004266737779,0.0827157644392869
0.2570042834047234,0.09089593012832449
0.25800430007166786,0.031067931235254746
0.25900431673861235,0.102675529072138
0.2600043334055568,0.11248575863284442
0.2610043500725012,0.08538538888020795
0.26200436673944566,0.13013282545247998
0.26300438340639015,0.07064498711331679
0.2640044000733346,0.09950200471605569
0.265004416740279,0.11707056364255336
0.26600443340722346,0.06412091465444178
0.2670044500741679,0.05737907661545428
0.2680044667411124,0.05038437568968401
0.2690044834080568,0.07824382028960587
0.27000450007500126,0.09594771243336817
0.2710045167419457,0.02901365558005589
0.2720045334088902,0.031648568145539936
0.27300455007583463,0.020483014288108947
0.27400456674277907,0.11853050351264117
0.2750045834097235,0.1280048453296372
0.276004600076668,0.06827958985895435
0.27700461674361243,0.12368184000113298
0.27800463341055687,0.04440777067135276
0.2790046500775013,0.027546562320390496
0.28000466674444574,0.10646787621782632
0.28100468341139023,0.12955392528289872
0.28200470007833467,0.11816554854579582
0.2830047167452791,0.09000723114880094
0.28400473341222354,0.1326998402457713
0.28500475007916803,0.12004297434909673
0.28600476674611247,0.03465914949413266
0.2870047834130569,0.09364298821087054
0.28800480008000134,0.0548292988784697
0.2890048167469458,0.041552880369195876
0.2900048334138903,0.08682694235891204
0.2910048500808347,0.09066626858005267
0.29200486674777915,0.03749834254976767
0.2930048834147236,0.06261723785651396
0.2940049000816681,0.05015020286845536
0.2950049167486125,0.05758233843084031
0.29600493341555695,0.057012515339043925
0.2970049500825014,0.10385946929694842
0.2980049667494459,0.06192294713766653
0.2990049834163903,0.06186994650740636
0.30000500008333475,0.07990307236110972
0.3010050167502792,0.06296382578626017
0.3020050334172236,0.09522733960740822
0.3030050500841681,0.04405402879708096
0.30400506675111255,0.05932027557990204
0.305005083418057,0.00952411278672774
0.3060051000850014,0.04503670121524207
0.3070051167519459,0.11767544678660623
0.30800513341889035,0.040217744095647545
0.3090051500858348,0.057974565662571156
0.3100051667527792,0.07534139765994935
0.31100518341972366,0.0922420722707293
0.31200520008666816,0.06675053873095416
0.3130052167536126,0.12959005770222917
0.31400523342055703,0.10038036990643066
0.31500525008750146,0.059957701393022644
0.31600526675444596,0.038405540287083914
0.3170052834213904,0.07592956395607207
0.31800530008833483,0.04874694780487984
0.31900531675527927,0.10429282854656949
0.3200053334222237,0.044304648178452505
0.3210053500891682,0.06288713218181124
0.32200536675611263,0.12034675387565048
0.32300538342305707,0.127274268590385
0.3240054000900015,0.06157865135673318
0.325005416756946,0.12430588113145823
0.32600543342389043,0.10790462510351156
0.32700545009083487,0.06637673284889044
0.3280054667577793,0.07439632793706977
0.3290054834247238,0.09124267369877417
0.33000550009166824,0.07181535227795414
0.3310055167586127,0.017855112879428182
0.3320055334255571,0.12071479498451353
0.33300555009250155,0.08542944919637897
0.33400556675944604,0.06158404437781273
0.3350055834263905,0.09529073167193947
0.3360056000933349,0.1367243140511231
0.33700561676027935,0.08820232299830931
0.33800563342722384,0.06262859311711536
0.3390056500941683,0.035574994475357176
0.3400056667611127,0.03846030743099575
0.34100568342805715,0.0488771894142226
0.3420057000950016,0.08548780415546749
0.3430057167619461,0.09808517158527823
0.3440057334288905,0.11828512182468634
0.34500575009583495,0.031547743076191695
0.3460057667627794,0.0718536188492768
0.3470057834297239,0.041812703713728104
0.3480058000966683,0.010845162495541533
0.34900581676361275,0.12340949854859792
0.3500058334305572,0.08831481436877817
0.3510058500975017,0.12699185234042942
0.3520058667644461,0.08594566202376068
0.35300588343139055,0.053363804666317315
0.354005900098335,0.07918277664287056
0.35500591676527943,0.13922560213371235
0.3560059334322239,0.09050665084721765
0.35700595009916836,0.040411095949516015
0.3580059667661128,0.10498696217679507
0.35900598343305723,0.08226696383919338
0.3600060001000017,0.041085424603057405
0.36100601676694616,0.02657728563704554
0.3620060334338906,0.09265367540650547
0.36300605010083503,0.036260782932165926
0.36400606676777947,0.051583329376726106
0.36500608343472396,0.07436474417074468
0.3660061001016684,0.034275626279567414
0.36700611676861283,0.0456236403592519
0.36800613343555727,0.07377778552009767
0.36900615010250176,0.12697522496943883
0.3700061667694462,0.058120429766248205
0.37100618343639064,0.029072172512970507
0.37200620010333507,0.11523453861548527
0.37300621677027956,0.09083553003363767
0.374006233437224,0.05962918196388217
0.37500625010416844,0.08720669944429879
0.3760062667711129,0.10031102633717509
0.3770062834380573,0.11225531272399203
0.3780063001050018,0.04618785596808196
0.37900631677194624,0.10262963149040069
0.3800063334388907,0.1079843495299615
0.3810063501058351,0.053862957150143595
0.3820063667727796,0.04212618448901593
0.38300638343972404,0.04136441799707663
0.3840064001066685,0.09881073983925645
0.3850064167736129,0.12752931130614026
0.38600643344055735,0.0749639377991974
0.38700645010750184,0.03863746478853501
0.3880064667744463,0.1083054115669761
0.3890064834413907,0.13204916795477906
0.39000650010833515,0.0790797573260748
0.39100651677527964,0.11601311696642293
0.3920065334422241,0.10399219662615578
0.3930065501091685,0.09636596588237162
0.39400656677611295,0.12937523458476094
0.3950065834430574,0.09674301653888565
0.3960066001100019,0.07579032404914235
0.3970066167769463,0.08600282821788054
0.39800663344389076,0.048824301969690946
0.3990066501108352,0.0440083429547967
0.4000066667777797,0.11781618785938154
0.4010066834447241,0.11286976225663957
0.40200670011166856,0.07354436291510638
0.403006716778613,0.09414203750494965
0.4040067334455575,0.08991103531306265
0.4050067501125019,0.042964727589531376
0.40600676677944636,0.1282060013444533
0.4070067834463908,0.08434009944148528
0.40800680011333523,0.07260321566026251
0.4090068167802797,0.044223958925647136
0.41000683344722416,0.04290823074320543
0.4110068501141686,0.043911901609856405
0.41200686678111303,0.0711595459487819
0.4130068834480575,0.10525262525045259
0.41400690011500196,0.04439381134173866
0.4150069167819464,0.06854722763401579
0.41600693344889084,0.11462793745970742
0.4170069501158353,0.024173536897364
0.41800696678277977,0.05429571149800879
0.4190069834497242,0.04161085391428584
0.42000700011666864,0.09047211039045326
0.4210070167836131,0.09764211311407
0.42200703345055757,0.03700565892759897
0.423007050117502,0.05553672216019721
0.42400706678444644,0.032075645431271976
0.4250070834513909,0.13039561845703437
0.42600710011833537,0.054678234979993565
0.4270071167852798,0.08821955429032904
0.42800713345222424,0.033162846418967086
0.4290071501191687,0.08475058229957438
0.4300071667861131,0.06951401716786976
0.4310071834530576,0.10750359481121555
0.43200720012000204,0.12341019548547325
0.4330072167869465,0.02757005973058657
0.4340072334538909,0.07749241280729921
0.4350072501208354,0.016453459805201864
0.43600726678777985,0.0917398989552882
0.4370072834547243,0.10498977202614597
0.4380073001216687,0.038899998161209204
0.43900731678861316,0.11091084464645125
0.44000733345555765,0.10142364012234038
0.4410073501225021,0.10887776467497993
0.4420073667894465,0.04334483206838288
0.44300738345639096,0.09914286001164047
0.44400740012333545,0.027245007968948822
0.4450074167902799,0.07076612195053532
0.4460074334572243,0.13054135451791235
0.44700745012416876,0.09215867474937788
0.44800746679111325,0.07501029353006455
0.4490074834580577,0.027583734224389575
0.4500075001250021,0.07508511730721287
0.45100751679194656,0.09598877807037948
0.452007533458891,0.12655177816272148
0.4530075501258355,0.11485010267194652
0.4540075667927799,0.09336368600335733
0.45500758345972436,0.08499127341871188
0.4560076001266688,0.08056573154908905
0.4570076167936133,0.12492614530798322
0.45800763346055773,0.045779015581574045
0.45900765012750216,0.07997241290250662
0.4600076667944466,0.11899794160729799
0.46100768346139104,0.057928997500825426
0.46200770012833553,0.0489192659391524
0.46300771679527997,0.06476486406906745
0.4640077334622244,0.06210180777602811
0.46500775012916884,0.06566900499259055
0.46600776679611333,0.05451882642326262
0.46700778346305777,0.13768260839237956
0.4680078001300022,0.060102805848434165
0.46900781679694664,0.06351476449022866
0.4700078334638911,0.10175715778160763
0.47100785013083557,0.050114377743195285
0.47200786679778,0.02184734134963768
0.47300788346472444,0.10541867867131734
0.4740079001316689,0.08440514420659455
0.47500791679861337,0.04812702860045434
0.4760079334655578,0.10793961253690021
0.47700795013250225,0.12869280269005468
0.4780079667994467,0.11063330801044004
0.4790079834663912,0.09930720504418963
0.4800080001333356,0.056245603738157804
0.48100801680028005,0.08391497481484805
0.4820080334672245,0.11469588891865194
0.4830080501341689,0.05317508004412029
0.4840080668011134,0.043807796993096344
0.48500808346805785,0.034363149741782076
0.4860081001350023,0.10618884084226456
0.4870081168019467,0.060556650317058994
0.4880081334688912,0.06043971439951351
0.48900815013583565,0.1318538496894226
0.4900081668027801,0.06484428673081451
0.4910081834697245,0.09953067961454744
0.49200820013666896,0.027531678120786034
0.49300821680361345,0.10800951784477518
0.4940082334705579,0.09718371617398226
0.4950082501375023,0.03222202409579636
0.49600826680444676,0.032384434099379016
0.49700828347139125,0.035280138599866465
0.4980083001383357,0.11263815618557704
0.4990083168052801,0.060199741847239516
0.5000083334722246,0.06689782364481262
0.501008350139169,0.12121147503788496
0.5020083668061135,0.09815766314604041
0.5030083834730579,0.11734418012429453
0.5040084001400024,0.05334189450688725
0.5050084168069469,0.13234683201275813
0.5060084334738912,0.07450624329198996
0.5070084501408357,0.037068899418960244
0.5080084668077802,0.13450011304739315
0.5090084834747246,0.0870199891337004
0.5100085001416691,0.07593387903204823
0.5110085168086135,0.055738352246957945
0.512008533475558,0.12651745095130326
0.5130085501425025,0.05713686226473259
0.5140085668094468,0.052746896165112994
0.5150085834763913,0.07403976841866158
0.5160086001433357,0.13475239414394288
0.5170086168102802,0.07207961182918171
0.5180086334772247,0.08217548226505127
0.5190086501441691,0.11239910332069733
0.5200086668111136,0.06495254653946989
0.5210086834780581,0.0992200600413774
0.5220087001450024,0.09679708810425036
0.5230087168119469,0.08901896182391919
0.5240087334788913,0.015288913304685979
0.5250087501458358,0.04658091651501595
0.5260087668127803,0.06800207932919008
0.5270087834797247,0.11743517270844338
0.5280088001466692,0.10924022049674204
0.5290088168136136,0.06344006536186028
0.530008833480558,0.08363292581357759
0.5310088501475025,0.05659081472488848
0.5320088668144469,0.062152944925542596
0.5330088834813914,0.0260118962567814
0.5340089001483358,0.02457522787955373
0.5350089168152803,0.0392805375920317
0.5360089334822248,0.09601546038464859
0.5370089501491692,0.08542730294212182
0.5380089668161137,0.057458873215607845
0.5390089834830581,0.05002712788595873
0.5400090001500025,0.04727539649781083
0.541009016816947,0.14683312057934944
0.5420090334838914,0.1080493507981341
0.5430090501508359,0.04340752060572535
0.5440090668177804,0.045432945834415976
0.5450090834847248,0.0627063495511025
0.5460091001516693,0.07517030311587278
0.5470091168186136,0.03451466419004499
0.5480091334855581,0.10560442797043496
0.5490091501525026,0.05257815121147051
0.550009166819447,0.11023606487244847
0.5510091834863915,0.0851487825228734
0.552009200153336,0.0879883324487446
0.5530092168202804,0.11553462469293747
0.5540092334872249,0.07255151302691099
0.5550092501541692,0.06527360009712374
0.5560092668211137,0.11945045462062306
0.5570092834880582,0.07146789005978926
0.5580093001550026,0.0521353883719145
0.5590093168219471,0.08503301955686939
0.5600093334888915,0.10078782646426258
0.561009350155836,0.027654782464101024
0.5620093668227805,0.056182180191864425
0.5630093834897248,0.10164545680486267
0.5640094001566693,0.1305361329302216
0.5650094168236138,0.10026388020291424
0.5660094334905582,0.10774830194736582
0.5670094501575027,0.09049603571543542
0.5680094668244471,0.010412761553882297
0.5690094834913916,0.04150543101418103
0.5700095001583361,0.04726412955483882
0.5710095168252804,0.0863200906856638
0.5720095334922249,0.09534112852037606
0.5730095501591693,0.07037889847252587
0.5740095668261138,0.10281959691412697
0.5750095834930583,0.03990291567942049
0.5760096001600027,0.10061618949085627
0.5770096168269472,0.13015836653565654
0.5780096334938916,0.0497108531636287
0.579009650160836,0.037683131270217975
0.5800096668277805,0.13010899146122104
0.5810096834947249,0.13446829434148502
0.5820097001616694,0.08408574490800222
0.5830097168286139,0.10064573839276084
0.5840097334955583,0.13161996781522342
0.5850097501625028,0.1322815852276781
0.5860097668294472,0.06797226823611902
0.5870097834963917,0.09025561827559354
0.5880098001633361,0.09841202897451135
0.5890098168302805,0.08002129334262953
0.590009833497225,0.08642409154244449
0.5910098501641694,0.1096889770607503
0.5920098668311139,0.11229141831358042
0.5930098834980584,0.03944452842210677
0.5940099001650028,0.0185714322061623
0.5950099168319473,0.08568072121267682
0.5960099334988918,0.07793611093996852
0.5970099501658361,0.06059266286258584
0.5980099668327806,0.11386999971383135
0.599009983499725,0.01584325933651197
0.6000100001666695,0.07582955135717986
0.601010016833614,0.11630933443843317
0.6020100335005584,0.005758366700822274
0.6030100501675029,0.05133953783910855
0.6040100668344472,0.1195464861592162
0.6050100835013917,0.10052362783368197
0.6060101001683362,0.031243970872606427
0.6070101168352806,0.07202666591000689
0.6080101335022251,0.1251335715905423
0.6090101501691695,0.09332174977420515
0.610010166836114,0.10666408380332484
0.6110101835030585,0.10180790085433328
0.6120102001700028,0.10234421328161454
0.6130102168369473,0.02676864319618231
0.6140102335038918,0.04131902553902348
0.6150102501708362,0.10998036191317917
0.6160102668377807,0.020749499325315838
0.6170102835047251,0.12713085960757817
0.6180103001716696,0.0354199336946732
0.6190103168386141,0.04759472871890005
0.6200103335055585,0.06444862263826291
0.621010350172503,0.0791342362676194
0.6220103668394473,0.08066513265711445
0.6230103835063918,0.1161214669052577
0.6240104001733363,0.12880394503481815
0.6250104168402807,0.07943527983307332
0.6260104335072252,0.05288341119455789
0.6270104501741697,0.02337296038434234
0.6280104668411141,0.04538620108619006
0.6290104835080585,0.07368803407792057
0.6300105001750029,0.09674512245348243
0.6310105168419474,0.10866223258733498
0.6320105335088919,0.08836671497679285
0.6330105501758363,0.11162308149835973
0.6340105668427808,0.07416942760234069
0.6350105835097252,0.09163847973806306
0.6360106001766697,0.09904506654665335
0.6370106168436142,0.05213184048045465
0.6380106335105585,0.10314621242635394
0.639010650177503,0.08475845187014427
0.6400106668444474,0.07638336628308456
0.6410106835113919,0.033728451693107536
0.6420107001783364,0.07457527115971069
0.6430107168452808,0.06863498579752322
0.6440107335122253,0.10800723456546882
0.6450107501791698,0.08661862081536977
0.6460107668461141,0.03968302401029205
0.6470107835130586,0.12905839365767455
0.648010800180003,0.05120874205581236
0.6490108168469475,0.08141708194036475
0.650010833513892,0.05074620701351506
0.6510108501808364,0.07648197904153488
0.6520108668477809,0.0732880121994412
0.6530108835147252,0.09500286786825068
0.6540109001816697,0.07027205831687874
0.6550109168486142,0.06386508213529836
0.6560109335155586,0.12259856862514554
0.6570109501825031,0.05452750378890751
0.6580109668494476,0.07247976754176702
0.659010983516392,0.014721565779754817
0.6600110001833365,0.07849322749740746
0.6610110168502809,0.10262504515874041
0.6620110335172253,0.07931546190849853
0.6630110501841698,0.10245832441946041
0.6640110668511142,0.058645758904508405
0.6650110835180587,0.12205699549976008
0.6660111001850031,0.05614911264713143
0.6670111168519476,0.0890399321565649
0.6680111335188921,0.0979121484885497
0.6690111501858365,0.10560185393471357
0.670011166852781,0.09543607344846644
0.6710111835197254,0.0627799943673358
0.6720112001866698,0.03891051328252321
0.6730112168536143,0.08611559095745265
0.6740112335205587,0.08046079486150974
0.6750112501875032,0.022190150256823114
0.6760112668544477,0.08027691691676521
0.6770112835213921,0.075513504365214
0.6780113001883366,0.09314951536290436
0.6790113168552809,0.034030171283055036
0.6800113335222254,0.09571308006681048
0.6810113501891699,0.06711014382542352
0.6820113668561143,0.08669837968942165
0.6830113835230588,0.04596164007012634
0.6840114001900032,0.11000766677362123
0.6850114168569477,0.12267867354039028
0.6860114335238922,0.1016163452182602
0.6870114501908365,0.10455239664755919
0.688011466857781,0.10162104105093203
0.6890114835247255,0.09430047169890951
0.6900115001916699,0.07505313613309728
0.6910115168586144,0.037547310682225915
0.6920115335255588,0.04644767491739085
0.6930115501925033,0.042515237282739426
0.6940115668594478,0.12571939275372518
0.6950115835263921,0.04929070502554142
0.6960116001933366,0.07404163087463912
0.697011616860281,0.10993858431836746
0.6980116335272255,0.052412016194425204
0.69901165019417,0.05684216713447919
0.7000116668611144,0.12677267353592525
0.7010116835280589,0.06489418032989326
0.7020117001950034,0.11217142234405802
0.7030117168619477,0.11744878155793519
0.7040117335288922,0.04216215712718028
0.7050117501958366,0.05985446905725472
0.7060117668627811,0.1301146145176593
0.7070117835297256,0.03584211428058904
0.70801180019667,0.10465594466002465
0.7090118168636145,0.07622694995406523
0.7100118335305589,0.05386678417832532
0.7110118501975033,0.054553835689976043
0.7120118668644478,0.03305378813921396
0.7130118835313922,0.09468791356011699
0.7140119001983367,0.11635173091635055
0.7150119168652811,0.02104342445838899
0.7160119335322256,0.09009049195003324
0.7170119501991701,0.03754427071715484
0.7180119668661145,0.05713565823098879
0.719011983533059,0.11560358566362182
0.7200120002000034,0.055206027437938836
0.7210120168669478,0.04107427685439419
0.7220120335338923,0.036364698787145086
0.7230120502008367,0.10913861076142117
0.7240120668677812,0.12135473848709862
0.7250120835347257,0.10767624021329923
0.7260121002016701,0.11407152998142624
0.7270121168686146,0.04822853426388982
0.7280121335355589,0.04074034148685905
0.7290121502025034,0.11552307191640498
0.7300121668694479,0.11973562349116211
0.7310121835363923,0.08201266744359864
0.7320122002033368,0.10807568247513669
0.7330122168702813,0.06736543839117684
0.7340122335372257,0.0527187287191828
0.7350122502041702,0.06273806701566645
0.7360122668711145,0.06157400782142926
0.737012283538059,0.10664452306237575
0.7380123002050035,0.042820334162413716
0.7390123168719479,0.0680751191559498
0.7400123335388924,0.1070025834459859
0.7410123502058368,0.09290650104443343
0.7420123668727813,0.11575274312252179
0.7430123835397258,0.09916390059949291
0.7440124002066701,0.08728148041761986
0.7450124168736146,0.11255520756483864
0.7460124335405591,0.11644584419458189
0.7470124502075035,0.10767496127751369
0.748012466874448,0.05370902579877791
0.7490124835413924,0.07133335375527068
0.7500125002083369,0.09839546172094642
0.7510125168752814,0.08031722690129232
0.7520125335422257,0.05177930225687869
0.7530125502091702,0.11598728558787184
0.7540125668761146,0.08560101917638104
0.7550125835430591,0.01888217575440853
0.7560126002100036,0.05305011330953355
0.757012616876948,0.08708498947515243
0.7580126335438925,0.03805847621148413
0.7590126502108369,0.12115946225375934
0.7600126668777814,0.052099569988762987
0.7610126835447258,0.029178140903712242
0.7620127002116702,0.13219828769117
0.7630127168786147,0.10316629937235257
0.7640127335455592,0.04395357031016184
0.7650127502125036,0.03968869062548566
0.7660127668794481,0.03939886303135554
0.7670127835463925,0.05722524692497782
0.768012800213337,0.07750410416447655
0.7690128168802814,0.09643427747828268
0.7700128335472258,0.1136494218750259
0.7710128502141703,0.07253734802814746
0.7720128668811147,0.05234772954313971
0.7730128835480592,0.07594213545569473
0.7740129002150037,0.10650756610406203
0.7750129168819481,0.0420460229409972
0.7760129335488926,0.0961257877214766
0.777012950215837,0.11375204733343117
0.7780129668827814,0.1438487248943918
0.7790129835497259,0.08608420549649212
0.7800130002166703,0.11515041564567381
0.7810130168836148,0.07105411534586949
0.7820130335505593,0.07141059517074089
0.7830130502175037,0.07670889512763192
0.7840130668844482,0.039417145772951336
0.7850130835513925,0.12624872951053173
0.786013100218337,0.06508088401239029
0.7870131168852815,0.10247021756084822
0.7880131335522259,0.05028233986644143
0.7890131502191704,0.0407168899267785
0.7900131668861148,0.07602095930917134
0.7910131835530593,0.09066786248752653
0.7920132002200038,0.1259489722063243
0.7930132168869481,0.1289025169777556
0.7940132335538926,0.08287447267391697
0.7950132502208371,0.04966830547504836
0.7960132668877815,0.11731289252062357
0.797013283554726,0.06915323732280185
0.7980133002216704,0.09862960429844175
0.7990133168886149,0.062008295730532605
0.8000133335555594,0.11100634096716001
0.8010133502225038,0.04210376448003221
0.8020133668894482,0.10968257708042232
0.8030133835563926,0.12555703899314813
0.8040134002233371,0.02826796394084231
0.8050134168902816,0.04163511492545863
0.806013433557226,0.09424875133765569
0.8070134502241705,0.08687056203368546
0.808013466891115,0.05299866851413486
0.8090134835580594,0.08313993930477064
0.8100135002250038,0.08254489390195889
0.8110135168919482,0.12055046871212699
0.8120135335588927,0.08614989787435545
0.8130135502258372,0.06435201217759833
0.8140135668927816,0.04094680803928189
0.8150135835597261,0.12973025303518043
0.8160136002266705,0.08192232406457535
0.817013616893615,0.032826644406518536
0.8180136335605594,0.07627070760706896
0.8190136502275038,0.132837755542452
0.8200136668944483,0.05598545096067767
0.8210136835613928,0.04167295054234385
0.8220137002283372,0.08521772244998473
0.8230137168952817,0.1136474860499948
0.8240137335622261,0.09265376840333829
0.8250137502291706,0.06252686536112931
0.826013766896115,0.09730159132080576
0.8270137835630594,0.0864709683032478
0.8280138002300039,0.030881396571763586
0.8290138168969483,0.1255929117298124
0.8300138335638928,0.05362284679615484
0.8310138502308373,0.09635904181830963
0.8320138668977817,0.0974193082425479
0.8330138835647262,0.07817491232353196
0.8340139002316705,0.057515329714267205
0.835013916898615,0.08996265413657993
0.8360139335655595,0.018818727218575616
0.8370139502325039,0.05768582468397189
0.8380139668994484,0.09156004742188154
0.8390139835663929,0.11078331984604507
0.8400140002333373,0.07363776214228857
0.8410140169002818,0.11247239812452438
0.8420140335672262,0.10091326850520356
0.8430140502341706,0.06442203380906489
0.8440140669011151,0.07071495293440533
0.8450140835680595,0.13584496417237313
0.846014100235004,0.1122944548677545
0.8470141169019484,0.08015462721749664
0.8480141335688929,0.07911302101266493
0.8490141502358374,0.048651417641336875
0.8500141669027818,0.03746225903779285
0.8510141835697262,0.061827639062836864
0.8520142002366707,0.10172700336268506
0.8530142169036151,0.0840616523135062
0.8540142335705596,0.04664183487999694
0.855014250237504,0.09115016417985161
0.8560142669044485,0.04716776120425943
0.857014283571393,0.0600844431260514
0.8580143002383374,0.05500177473561656
0.8590143169052818,0.08107826852409146
0.8600143335722262,0.10655352928484003
0.8610143502391707,0.07896111442452126
0.8620143669061152,0.0764575871380274
0.8630143835730596,0.06333839676172709
0.8640144002400041,0.06847264018439925
0.8650144169069485,0.09440582049640295
0.866014433573893,0.08310890155667566
0.8670144502408375,0.04012674682153028
0.8680144669077818,0.07775534191195829
0.8690144835747263,0.06771501786379883
0.8700145002416708,0.10264134127890401
0.8710145169086152,0.12004723415310088
0.8720145335755597,0.036033987052551855
0.8730145502425041,0.11587994837168983
0.8740145669094486,0.07760907349458944
0.8750145835763931,0.04708525038444333
0.8760146002433374,0.07736361589495218
0.8770146169102819,0.1097129505612705
0.8780146335772263,0.04712022093457181
0.8790146502441708,0.054275962653511395
0.8800146669111153,0.03891560442150474
0.8810146835780597,0.1295669359646237
0.8820147002450042,0.08568594553005755
0.8830147169119487,0.051855050852403266
0.884014733578893,0.06340824104593869
0.8850147502458375,0.11291808234412022
0.8860147669127819,0.12012342377024644
0.8870147835797264,0.03141416956475343
0.8880148002466709,0.0746532222010824
0.8890148169136153,0.052892588941644246
0.8900148335805598,0.0399058874538927
0.8910148502475042,0.12880470003578204
0.8920148669144486,0.12200250236850024
0.8930148835813931,0.07277703783353842
0.8940149002483375,0.048232740477238294
0.895014916915282,0.07635262039481146
0.8960149335822265,0.07478363744153876
0.8970149502491709,0.0859431666640995
0.8980149669161154,0.06995658059621711
0.8990149835830598,0.10436430772656652
0.9000150002500042,0.1022214499767035
0.9010150169169487,0.13459880577394917
0.9020150335838931,0.048866973826518605
0.9030150502508376,0.038182338462317555
0.904015066917782,0.08330821661631772
0.9050150835847265,0.07763331696755299
0.906015100251671,0.05095963047731294
0.9070151169186154,0.06219645197763214
0.9080151335855599,0.09524996545437082
0.9090151502525042,0.0640127181854401
0.9100151669194487,0.07021440279720247
0.9110151835863932,0.04296319541584064
0.9120152002533376,0.05445913304781236
0.9130152169202821,0.08845140110495549
0.9140152335872266,0.02328932821251406
0.915015250254171,0.06625508080933418
0.9160152669211155,0.09612860958950739
0.9170152835880598,0.09054244637568447
0.9180153002550043,0.05676132745791693
0.9190153169219488,0.1240595826626597
0.9200153335888932,0.09032082312113544
0.9210153502558377,0.1450523499178176
0.9220153669227821,0.08683161449225632
0.9230153835897266,0.05728453514728927
0.9240154002566711,0.09800947649199054
0.9250154169236154,0.08184575436089486
0.9260154335905599,0.0525247345709894
0.9270154502575044,0.050633480761568025
0.9280154669244488,0.06184384236926421
0.9290154835913933,0.041201734766722474
0.9300155002583377,0.008358048541595511
0.9310155169252822,0.06558514574708246
0.9320155335922267,0.12253223067215632
0.933015550259171,0.07351657279471072
0.9340155669261155,0.11431869607348637
0.9350155835930599,0.050873254994679616
0.9360156002600044,0.04190079617918026
0.9370156169269489,0.07946441954537105
0.9380156335938933,0.05055677139377812
0.9390156502608378,0.07517456300921285
0.9400156669277822,0.131552075400137
0.9410156835947266,0.03980702775565301
0.9420157002616711,0.09145912225117662
0.9430157169286155,0.07016492160253979
0.94401573359556,0.03735176711226737
0.9450157502625045,0.06996470351325924
0.9460157669294489,0.08924351065589792
0.9470157835963934,0.0866797433126565
0.9480158002633378,0.08601750982474869
0.9490158169302823,0.07357561089484627
0.9500158335972267,0.062298148768231726
0.9510158502641711,0.10211841046584391
0.9520158669311156,0.0969094598316492
0.95301588359806,0.046505575916029704
0.9540159002650045,0.08749549221792198
0.955015916931949,0.10264952619359641
0.9560159335988934,0.0757439017647055
0.9570159502658379,0.046209211769707985
0.9580159669327823,0.11103043491783851
0.9590159835997267,0.08363221241713618
0.9600160002666712,0.07136052968048055
0.9610160169336156,0.05121820323861059
0.9620160336005601,0.102356041637762
0.9630160502675046,0.12289880452235599
0.964016066934449,0.14681716743951553
0.9650160836013935,0.13261447104012813
0.9660161002683378,0.08733248744110284
0.9670161169352823,0.08892935020773968
0.9680161336022268,0.09651534226475486
0.9690161502691712,0.07430540222841571
0.9700161669361157,0.06477137142904868
0.9710161836030601,0.04983840746628055
0.9720162002700046,0.08264462078041986
0.9730162169369491,0.040468345013278506
0.9740162336038934,0.08559689493359164
0.9750162502708379,0.04377716553205285
0.9760162669377824,0.11468389414788309
0.9770162836047268,0.10361765151299494
0.9780163002716713,0.03528842047212136
0.9790163169386157,0.06853721307718066
0.9800163336055602,0.12511560043012235
0.9810163502725047,0.0883950154458151
0.982016366939449,0.06473335245111257
0.9830163836063935,0.048595485952748096
0.9840164002733379,0.031130889286627807
0.9850164169402824,0.06943612402679876
0.9860164336072269,0.13185414334993512
0.9870164502741713,0.10299302912869106
0.9880164669411158,0.07249471464582938
0.9890164836080603,0.09168920499233625
0.9900165002750047,0.08471190043924684
0.9910165169419491,0.058406004340264224
0.9920165336088935,0.06981502503346228
0.993016550275838,0.053365347953986716
0.9940165669427825,0.10720504389926735
0.9950165836097269,0.11941123310285685
0.9960166002766714,0.0922171363227832
0.9970166169436158,0.07444621826141991
0.9980166336105603,0.017467565561336867
0.9990166502775047,0.030672755864044048
1.0000166669444492,0.07376025627111331
1.0010166836113936,0.08965602863712654
1.002016700278338,0.04384565020263193
1.0030167169452826,0.039123935185864905
1.004016733612227,0.10294430886063426
1.0050167502791714,0.11028214781504528
1.0060167669461157,0.12929626013488651
1.0070167836130604,0.10102925198664081
1.0080168002800047,0.1177106474504806
1.0090168169469491,0.12109321084224632
1.0100168336138937,0.07468907263225934
1.011016850280838,0.04956607636802518
1.0120168669477825,0.05783681520559014
1.013016883614727,0.10102055907690834
1.0140169002816715,0.08391532504127466
1.0150169169486158,0.10755198588643515
1.0160169336155604,0.06489214130504814
1.0170169502825048,0.027895843489417843
1.0180169669494492,0.07834831634933065
1.0190169836163936,0.11581391282140024
1.0200170002833382,0.09649403671382034
1.0210170169502826,0.07092834354806873
1.022017033617227,0.033308387293372994
1.0230170502841716,0.09569811427947385
1.024017066951116,0.05484551459824355
1.0250170836180603,0.06347878779946325
1.026017100285005,0.09138164869473692
1.0270171169519493,0.11282413465653734
1.0280171336188937,0.0662757251607509
1.0290171502858383,0.07492106371038665
1.0300171669527827,0.10274209838380347
1.031017183619727,0.09864782797437002
1.0320172002866714,0.1158833180142525
1.033017216953616,0.1422157810013255
1.0340172336205604,0.028156742044359043
1.0350172502875048,0.06806805648017145
1.0360172669544494,0.08058724303787679
1.0370172836213938,0.08788524687455027
1.0380173002883382,0.08101219994155753
1.0390173169552828,0.09254489774790566
1.0400173336222271,0.026347686009920115
1.0410173502891715,0.04763399929666216
1.0420173669561161,0.11518110504463783
1.0430173836230605,0.11467990269390801
1.044017400290005,0.041755202944420665
1.0450174169569493,0.12605739057825488
1.0460174336238939,0.12978414026465915
1.0470174502908383,0.05804294222596516
1.0480174669577826,0.09253521321484064
1.0490174836247272,0.07000828673413416
1.0500175002916716,0.03410245150569269
1.051017516958616,0.04059350790843246
1.0520175336255606,0.09146133258239073
1.053017550292505,0.07051029290645855
1.0540175669594494,0.08023539078650127
1.055017583626394,0.04833873852708276
1.0560176002933384,0.11969115204229258
1.0570176169602827,0.08396546308614766
1.0580176336272271,0.061046806112485315
1.0590176502941717,0.0423086117816774
1.060017666961116,0.049874954519103745
1.0610176836280605,0.1316106094327914
1.062017700295005,0.06546277100631726
1.0630177169619495,0.02234566965082007
1.0640177336288938,0.059845381766120545
1.0650177502958385,0.02702166250137509
1.0660177669627828,0.12596177370743764
1.0670177836297272,0.09100641334730031
1.0680178002966716,0.055548918857562544
1.0690178169636162,0.0436453392225399
1.0700178336305606,0.04187878473189115
1.071017850297505,0.05773956788975057
1.0720178669644496,0.10868704040507958
1.073017883631394,0.10317143248955203
1.0740179002983383,0.11643820915801091
1.075017916965283,0.05729152659228554
1.0760179336322273,0.024183949655204335
1.0770179502991717,0.07383569782417718
1.0780179669661163,0.03899844616632307
1.0790179836330607,0.05324950462189981
1.080018000300005,0.07197335222345919
1.0810180169669494,0.029971459251568716
1.082018033633894,0.10306537351645485
1.0830180503008384,0.10834818008549388
1.0840180669677828,0.11122361999232765
1.0850180836347274,0.09678177516955815
1.0860181003016718,0.13283190041822085
1.0870181169686162,0.1185906132143064
1.0880181336355608,0.057403765883570775
1.0890181503025052,0.02194634764430553
1.0900181669694495,0.08905321751190742
1.0910181836363941,0.06938477233697353
1.0920182003033385,0.11314942676688268
1.093018216970283,0.04274015860691688
1.0940182336372273,0.053464894642139965
1.0950182503041719,0.1389183005491458
1.0960182669711163,0.10114420126871027
1.0970182836380606,0.06675055437161868
1.0980183003050052,0.04985169960964145
1.0990183169719496,0.07398028144879157
1.100018333638894,0.043135871389002475
1.1010183503058386,0.1465974790218434
1.102018366972783,0.042787411614031684
1.1030183836397274,0.04379779816168
1.104018400306672,0.0796099030984113
1.1050184169736164,0.12807747126374439
1.1060184336405607,0.07882744394597434
1.1070184503075051,0.10488972219893561
1.1080184669744497,0.05331555135755093
1.109018483641394,0.043269394367743866
1.1100185003083385,0.10461145691053293
1.111018516975283,0.07157226493553961
1.1120185336422275,0.057322860623782126
1.1130185503091719,0.12934254861903613
1.1140185669761165,0.03639507619009216
1.1150185836430608,0.04501346434964968
1.1160186003100052,0.08333412511356979
1.1170186169769498,0.07977021460536995
1.1180186336438942,0.10834920572113192
1.1190186503108386,0.06665014889526968
1.120018666977783,0.029087991550676956
1.1210186836447276,0.07700289264274134
1.122018700311672,0.07841873489383361
1.1230187169786163,0.0286246541447743
1.124018733645561,0.04258850602914241
1.1250187503125053,0.08608208791939635
1.1260187669794497,0.06025088690692166
1.1270187836463943,0.0561511892922427
1.1280188003133387,0.03196044963389272
1.129018816980283,0.0933875718509652
1.1300188336472277,0.1072768277324542
1.131018850314172,0.11221047182809993
1.1320188669811164,0.07943354165507016
1.1330188836480608,0.08068769765285226
1.1340189003150054,0.11282531535299113
1.1350189169819498,0.09490658105517111
1.1360189336488942,0.06568939251334155
1.1370189503158388,0.07402078259012256
1.1380189669827832,0.06549488304768844
1.1390189836497275,0.07431237043520625
1.1400190003166721,0.11451443658579817
1.1410190169836165,0.12730737444041118
1.142019033650561,0.0315954302237377
1.1430190503175053,0.13460978960828085
1.1440190669844499,0.10175435270466661
1.1450190836513943,0.07270005124049582
1.1460191003183386,0.09640427976208434
1.1470191169852832,0.11945016027770143
1.1480191336522276,0.053260811431724356
1.149019150319172,0.1244131412759787
1.1500191669861166,0.045263890698355916
1.151019183653061,0.10947031457061138
1.1520192003200054,0.1176373241566046
1.15301921698695,0.14488885598742152
1.1540192336538944,0.11663981619374134
1.1550192503208387,0.04043149307380906
1.1560192669877831,0.07236639725711216
1.1570192836547277,0.07688820479789704
1.158019300321672,0.04190283398697636
1.1590193169886165,0.1019542535326842
1.160019333655561,0.025455189560812674
1.1610193503225055,0.0710939372480337
1.1620193669894499,0.08548288491568512
1.1630193836563945,0.10714124644744726
1.1640194003233388,0.05415455866662469
1.1650194169902832,0.10797255384801405
1.1660194336572278,0.07570458114468528
1.1670194503241722,0.12694158102445163
1.1680194669911166,0.11229634140915243
1.169019483658061,0.031153445920589176
1.1700195003250056,0.11597227388801319
1.17101951699195,0.03586218392476656
1.1720195336588943,0.09092029923560878
1.173019550325839,0.12054559433771497
1.1740195669927833,0.039617229871481696
1.1750195836597277,0.05771956795598238
1.1760196003266723,0.08068429432695184
1.1770196169936167,0.0804365035235298
1.178019633660561,0.12356657038163542
1.1790196503275057,0.06550005793246709
1.18001966699445,0.08442737839027747
1.1810196836613944,0.11501870070508605
1.1820197003283388,0.08151758466014807
1.1830197169952834,0.10110007462385892
1.1840197336622278,0.09388515225365963
1.1850197503291722,0.08046842502381135
1.1860197669961168,0.05651157733664354
1.1870197836630612,0.07920691796466522
1.1880198003300055,0.09375709303016473
1.1890198169969501,0.101241931445401
1.1900198336638945,0.06283972900102457
1.191019850330839,0.026123566686483267
1.1920198669977835,0.10444522754675474
1.1930198836647279,0.12449365887570635
1.1940199003316723,0.043465666997002404
1.1950199169986166,0.08871638349046418
1.1960199336655613,0.07012043012578732
1.1970199503325056,0.05102232523426032
1.19801996699945,0.06307900246055338
1.1990199836663946,0.04942787371777917
1.200020000333339,0.05369027752843712
1.2010200170002834,0.13250532132517104
1.202020033667228,0.1157529361646749
1.2030200503341724,0.054078283357845064
1.2040200670011167,0.11090600079265714
1.2050200836680613,0.10449402105921304
1.2060201003350057,0.0901912961229322
1.20702011700195,0.04381763834811071
1.2080201336688945,0.08567805476156452
1.209020150335839,0.09626204282436979
1.2100201670027835,0.07913054486841777
1.2110201836697279,0.03885031124455592
1.2120202003366725,0.12154631880289002
1.2130202170036168,0.07970238766373278
1.2140202336705612,0.08515106881808275
1.2150202503375058,0.09400969907601715
1.2160202670044502,0.07474204120223688
1.2170202836713946,0.03457153259229949
1.218020300338339,0.0421219165546773
1.2190203170052836,0.12724693505511636
1.220020333672228,0.050017053889147546
1.2210203503391723,0.13278500894021822
1.222020367006117,0.13434895332172597
1.2230203836730613,0.0862210305928077
1.2240204003400057,0.09136364886787816
1.2250204170069503,0.023092759710089443
1.2260204336738947,0.034948761763862746
1.227020450340839,0.0818184581983703
1.2280204670077837,0.12139218815723116
1.229020483674728,0.08639030103861738
1.2300205003416724,0.08940810955144993
1.2310205170086168,0.10518616456476762
1.2320205336755614,0.04210223765815095
1.2330205503425058,0.07579550489794468
1.2340205670094502,0.060545333326581185
1.2350205836763948,0.09426012400447055
1.2360206003433392,0.04743386549615884
1.2370206170102835,0.0716350594234872
1.2380206336772281,0.03962359363834632
1.2390206503441725,0.0967719810699378
1.240020667011117,0.10426361944196162
1.2410206836780615,0.06960413855200268
1.242020700345006,0.09200444824821795
1.2430207170119503,0.04844879369009447
1.2440207336788947,0.037717518305317346
1.2450207503458393,0.10859065015900887
1.2460207670127836,0.08639197364198911
1.247020783679728,0.08297809188627422
1.2480208003466726,0.10642692171289096
1.249020817013617,0.07831705178172317
1.2500208336805614,0.11870506955841574
1.251020850347506,0.11571908414657492
1.2520208670144504,0.11566924932612925
1.2530208836813947,0.023972329042547837
1.2540209003483394,0.13266177748703883
1.2550209170152837,0.0834694982475166
1.2560209336822281,0.11811938503543673
1.2570209503491725,0.10053738833954998
1.258020967016117,0.04177984647048043
1.2590209836830615,0.04933458710348234
1.2600210003500059,0.07999521492051362
1.2610210170169505,0.0919566302390581
1.2620210336838948,0.06447539761345963
1.2630210503508392,0.10369719229359926
1.2640210670177838,0.11362687697512751
1.2650210836847282,0.07702724188457268
1.2660211003516726,0.03527163810392098
1.2670211170186172,0.12199552834537483
1.2680211336855616,0.06123092038186685
1.269021150352506,0.06104160486291794
1.2700211670194503,0.06948107545659851
1.271021183686395,0.10610547963075127
1.2720212003533393,0.08311184675035779
1.2730212170202837,0.1032467146770765
1.2740212336872283,0.055147760861118666
1.2750212503541727,0.10490339019039034
1.276021267021117,0.038311269878156466
1.2770212836880617,0.07052993004529094
1.278021300355006,0.040603518206236054
1.2790213170219504,0.0714988517062927
1.2800213336888948,0.03996406911658075
1.2810213503558394,0.019345578121637147
1.2820213670227838,0.10344547893307324
1.2830213836897282,0.09484307471211072
1.2840214003566728,0.06675526226065628
1.2850214170236172,0.05136995835783517
1.2860214336905615,0.08270334828401066
1.2870214503575061,0.10371623071759799
1.2880214670244505,0.12171141209277742
1.289021483691395,0.08467982585559172
1.2900215003583395,0.05028427169715129
1.291021517025284,0.09349804434043377
1.2920215336922283,0.08237805706439766
1.2930215503591727,0.08417765033283107
1.2940215670261173,0.04294492019019438
1.2950215836930616,0.08210385848826572
1.296021600360006,0.06786203582361415
1.2970216170269506,0.10293237485145566
1.298021633693895,0.07361023407109223
1.2990216503608394,0.041675546273355187
1.300021667027784,0.08255703511412829
1.3010216836947284,0.10238621177345993
1.3020217003616728,0.09631827101549342
1.3030217170286174,0.09318455780141739
1.3040217336955617,0.09124507054407816
1.3050217503625061,0.12987327030055654
1.3060217670294505,0.10876170784562217
1.307021783696395,0.12424032104278512
1.3080218003633395,0.11225959224251915
1.3090218170302839,0.09831581908645541
1.3100218336972285,0.1054410649221883
1.3110218503641728,0.057852589087783346
1.3120218670311172,0.08078514988395294
1.3130218836980618,0.07606517797348407
1.3140219003650062,0.05918684421199621
1.3150219170319506,0.09985795866463236
1.3160219336988952,0.04390083129867857
1.3170219503658396,0.06468852521716568
1.318021967032784,0.10135214563377822
1.3190219836997283,0.08987320146928923
1.320022000366673,0.04428750298715571
1.3210220170336173,0.09054041963531496
1.3220220337005617,0.07262113014424652
1.3230220503675063,0.09891414687160614
1.3240220670344507,0.06250422747928375
1.325022083701395,0.07476341485698157
1.3260221003683397,0.1221287765122164
1.327022117035284,0.036119651837043645
1.3280221337022284,0.053259769498597176
1.329022150369173,0.08565970762094016
1.3300221670361174,0.04010677389893426
1.3310221837030618,0.11893015962474651
1.3320222003700062,0.029727978667081326
1.3330222170369508,0.03456534222107453
1.3340222337038952,0.08569340338868263
1.3350222503708395,0.0849109256961983
1.3360222670377842,0.04732676598056135
1.3370222837047285,0.06594938511480794
1.338022300371673,0.08629426557404168
1.3390223170386175,0.07391960250755394
1.340022333705562,0.09942252501360237
1.3410223503725063,0.08639702784772825
1.3420223670394509,0.08466975701053261
1.3430223837063953,0.032237332170691406
1.3440224003733396,0.05724896256366979
1.345022417040284,0.14104173764438369
1.3460224337072286,0.03191012129991906
1.347022450374173,0.10324223246267106
1.3480224670411174,0.019077785142150812
1.349022483708062,0.07498236333056714
1.3500225003750064,0.038958549087389854
1.3510225170419508,0.08025220580002768
1.3520225337088954,0.08130166118840094
1.3530225503758397,0.1051945824440367
1.3540225670427841,0.04180373978678859
1.3550225837097285,0.0319018973161711
1.356022600376673,0.10131593742684526
1.3570226170436175,0.1303428779813841
1.3580226337105619,0.08022529403870557
1.3590226503775065,0.0759819694946507
1.3600226670444509,0.06904290380235528
1.3610226837113952,0.07842161006023038
1.3620227003783398,0.03821697485263573
1.3630227170452842,0.11938424027321823
1.3640227337122286,0.05026004270207759
1.3650227503791732,0.10554572187004437
1.3660227670461176,0.06085147578224499
1.367022783713062,0.038020835771444994
1.3680228003800063,0.03736327089779735
1.369022817046951,0.07476623887753515
1.3700228337138953,0.08386785190758239
1.3710228503808397,0.12258516445226231
1.3720228670477843,0.0989448012822774
1.3730228837147287,0.10642191033030658
1.374022900381673,0.11531448463299321
1.3750229170486177,0.14016203723352627
1.376022933715562,0.09265604182896772
1.3770229503825064,0.0593528970784584
1.378022967049451,0.07189829023648953
1.3790229837163954,0.09916890865782085
1.3800230003833398,0.10827497292447255
1.3810230170502842,0.10964661570015025
1.3820230337172288,0.041048925421891536
1.3830230503841732,0.08549150402241883
1.3840230670511176,0.036050635250964636
1.3850230837180622,0.0770007251536415
1.3860231003850065,0.06851753639121758
1.387023117051951,0.11055550932232792
1.3880231337188955,0.08184753813646399
1.38902315038584,0.14337876598576949
1.3900231670527843,0.09254166889531054
1.3910231837197289,0.043333794756368935
1.3920232003866733,0.062471279824565164
1.3930232170536176,0.035099218540381796
1.394023233720562,0.11097889738079735
1.3950232503875066,0.06773391307839367
1.396023267054451,0.040877609226713435
1.3970232837213954,0.06837835988071658
1.39802330038834,0.1254429173778169
1.3990233170552844,0.07806080315241783
1.4000233337222288,0.08443102134395286
1.4010233503891734,0.041488790627003704
1.4020233670561177,0.061094446728787
1.4030233837230621,0.02933164425222158
1.4040234003900067,0.11277304440908241
1.405023417056951,0.043459777132535016
1.4060234337238955,0.12547107305188243
1.4070234503908399,0.05891505329961309
1.4080234670577845,0.11226680315501039
1.4090234837247289,0.09346038312896647
1.4100235003916732,0.053712207561268044
1.4110235170586178,0.02755151151212578
1.4120235337255622,0.04370734968028362
1.4130235503925066,0.11554739554399955
1.4140235670594512,0.03111871415203212
1.4150235837263956,0.07181237652627087
1.41602360039334,0.10080798110481727
1.4170236170602846,0.04331677920949575
1.418023633727229,0.11877358216449985
1.4190236503941733,0.12452583607577436
1.4200236670611177,0.07265384757264631
1.4210236837280623,0.1059883998356765
1.4220237003950067,0.07788273451897654
1.423023717061951,0.05557465348154763
1.4240237337288957,0.08202765320912053
1.42502375039584,0.029425571665089172
1.4260237670627844,0.09977239986290302
1.427023783729729,0.11366132642395489
1.4280238003966734,0.04435024607076624
1.4290238170636178,0.02198642039236215
1.4300238337305622,0.0953512783995045
1.4310238503975068,0.1332388332762132
1.4320238670644512,0.07441305959979658
1.4330238837313956,0.037003872413574626
1.4340239003983402,0.07753822925994613
1.4350239170652845,0.05763831828248652
1.436023933732229,0.0268276396881452
1.4370239503991735,0.11396848611625485
1.438023967066118,0.1102617315838969
1.4390239837330623,0.03605361358515978
1.4400240004000069,0.11043081915587484
1.4410240170669513,0.029758878546762034
1.4420240337338956,0.12172156387888117
1.44302405040084,0.11799430110377926
1.4440240670677846,0.08788620033841335
1.445024083734729,0.06914299637469591
1.4460241004016734,0.06931967369826225
1.447024117068618,0.12388383472021343
1.4480241337355624,0.10109134469903955
1.4490241504025068,0.12454813732079736
1.4500241670694514,0.07332975514812842
1.4510241837363957,0.1204850775876678
1.4520242004033401,0.07686211529509053
1.4530242170702847,0.059232645790050595
1.454024233737229,0.13073901709738406
1.4550242504041735,0.09617109758980665
1.4560242670711179,0.05878057571637413
1.4570242837380625,0.05323275162618019
1.4580243004050069,0.03018574892969622
1.4590243170719512,0.11311765664162805
1.4600243337388958,0.030338095959590326
1.4610243504058402,0.05730065446487361
1.4620243670727846,0.04199779718310927
1.4630243837397292,0.0932911384374828
1.4640244004066736,0.11277145926424827
1.465024417073618,0.04983160403055738
1.4660244337405626,0.12699609571013365
1.467024450407507,0.0898351636081707
1.4680244670744513,0.1173546404831277
1.4690244837413957,0.0551118376956065
1.4700245004083403,0.1287217114169213
1.4710245170752847,0.1190302907358172
1.472024533742229,0.12515077720435624
1.4730245504091737,0.0846317767530753
1.474024567076118,0.06900662053604271
1.4750245837430624,0.030282963846783497
1.476024600410007,0.1424130427766868
1.4770246170769514,0.073186878490364
1.4780246337438958,0.037511910628402166
1.4790246504108404,0.11166786643583278
1.4800246670777848,0.1057362582075842
1.4810246837447292,0.08690673707807225
1.4820247004116736,0.07342100892419243
1.4830247170786182,0.07330291292806151
1.4840247337455625,0.054788380776177995
1.485024750412507,0.10772958049473638
1.4860247670794515,0.09555643531099454
1.487024783746396,0.052612930161863934
1.4880248004133403,0.03568775947852803
1.489024817080285,0.11280644120445427
1.4900248337472293,0.11945867365702069
1.4910248504141737,0.022725543935931947
1.4920248670811183,0.04277776263517713
1.4930248837480626,0.10197366186382037
1.494024900415007,0.04155453384386144
1.4950249170819514,0.11300870943720823
1.496024933748896,0.09575583247568724
1.4970249504158404,0.06289360452095223
1.4980249670827848,0.10020710228776905
1.4990249837497294,0.11266576954971375
1.5000250004166737,0.06306518715219853
1.5010250170836181,0.09941026713244544
1.5020250337505627,0.07373708744217691
1.5030250504175071,0.11113324711942091
1.5040250670844515,0.051869786619317654
1.5050250837513959,0.08064907378106757
1.5060251004183405,0.1284729337279643
1.5070251170852849,0.03615692689096493
1.5080251337522292,0.06135327273031481
1.5090251504191738,0.10473266625300784
1.5100251670861182,0.10476269411353695
1.5110251837530626,0.059252157588234954
1.5120252004200072,0.04388757385140822
1.5130252170869516,0.06323900449651611
1.514025233753896,0.05672377963826485
1.5150252504208406,0.06629646157629297
1.516025267087785,0.12554460870027512
1.5170252837547293,0.0448711211445801
1.5180253004216737,0.08452833605953557
1.5190253170886183,0.10024793226467636
1.5200253337555627,0.10250206320165103
1.521025350422507,0.10833977372143436
1.5220253670894517,0.1286472298024047
1.523025383756396,0.09295201214799348
1.5240254004233404,0.11636447508681601
1.525025417090285,0.09222896603802307
1.5260254337572294,0.10266206777115616
1.5270254504241738,0.030952160228159088
1.5280254670911184,0.135719005006408
1.5290254837580628,0.08200236331238654
1.5300255004250072,0.12857098565471742
1.5310255170919516,0.06492064908185058
1.5320255337588962,0.06578498464689882
1.5330255504258405,0.0826990827983184
1.534025567092785,0.05973839972766243
1.5350255837597295,0.030106838815683063
1.536025600426674,0.11340773317854833
1.5370256170936183,0.11150907170745637
1.538025633760563,0.09194539885516768
1.5390256504275073,0.07942985551901754
1.5400256670944517,0.11946232690246687
1.5410256837613963,0.10284761298685494
1.5420257004283406,0.09722394747426541
1.543025717095285,0.09749181419678721
1.5440257337622294,0.07512196036998585
1.545025750429174,0.06078907557891143
1.5460257670961184,0.03625497063922981
1.5470257837630628,0.1219357437912516
1.5480258004300074,0.050114225063892605
1.5490258170969518,0.1158278741683014
1.5500258337638961,0.11601108544030679
1.5510258504308407,0.10054331115598678
1.5520258670977851,0.02535540485426804
1.5530258837647295,0.10733645253716981
1.554025900431674,0.05776922256031633
1.5550259170986185,0.10037390721933377
1.5560259337655629,0.053072751107160296
1.5570259504325072,0.053532718076893096
1.5580259670994518,0.13080249927370488
1.5590259837663962,0.08052988127875559
1.5600260004333406,0.10656694721677502
1.5610260171002852,0.0655396816534644
1.5620260337672296,0.12369227102963463
1.563026050434174,0.03491850072158661
1.5640260671011186,0.03955034411449454
1.565026083768063,0.11449600595019022
1.5660261004350073,0.11150220893607556
1.567026117101952,0.1108040470708897
1.5680261337688963,0.1192719867998044
1.5690261504358407,0.0610709822603861
1.570026167102785,0.11340132783203447
1.5710261837697297,0.08854634172969476
1.572026200436674,0.0663829071445693
1.5730262171036185,0.09509912241090242
1.574026233770563,0.07876021625666856
1.5750262504375074,0.10013528609268701
1.5760262671044518,0.041607227710332664
1.5770262837713964,0.04693718647346884
1.5780263004383408,0.022243245831025653
1.5790263171052852,0.060821199532218054
1.5800263337722296,0.07311959506974229
1.5810263504391742,0.0792966293434718
1.5820263671061185,0.09371720323565236
1.583026383773063,0.0809994012920027
1.5840264004400075,0.03900379764070799
1.585026417106952,0.08007521852156073
1.5860264337738963,0.04469676196871262
1.587026450440841,0.051019530193775246
1.5880264671077853,0.04494950774967143
1.5890264837747297,0.11045761258998853
1.5900265004416743,0.10056585097727708
1.5910265171086186,0.07333032228445396
1.592026533775563,0.11092601804067673
1.5930265504425074,0.1212785645495668
1.594026567109452,0.106500832413
1.5950265837763964,0.12042081425299458
1.5960266004433408,0.019524795883344777
1.5970266171102854,0.09232612835763211
1.5980266337772298,0.13375057805040824
1.5990266504441741,0.11805937777816847
1.6000266671111187,0.09181489494528759
1.6010266837780631,0.07396797900247279
1.6020267004450075,0.07198728762362128
1.603026717111952,0.06682894259485933
1.6040267337788965,0.08858951169408491
1.6050267504458409,0.0735692013266664
1.6060267671127852,0.05024331875981275
1.6070267837797299,0.09185762852912943
1.6080268004466742,0.08731215099129126
1.6090268171136186,0.051146689125649944
1.6100268337805632,0.13281080077590754
1.6110268504475076,0.08917007876561617
1.612026867114452,0.044328552907698125
1.6130268837813966,0.07546566119819806
1.614026900448341,0.13192054094571415
1.6150269171152853,0.09434207064769308
1.61602693378223,0.06433927642089884
1.6170269504491743,0.08093254670808891
1.6180269671161187,0.06510071167461362
1.619026983783063,0.06800113506001376
1.6200270004500077,0.13514671113037907
1.621027017116952,0.04236092678752296
1.6220270337838965,0.1235553694741725
1.623027050450841,0.02955430330467126
1.6240270671177854,0.0595841397164744
1.6250270837847298,0.11708398326747849
1.6260271004516744,0.07695780035586758
1.6270271171186188,0.05391571686708456
1.6280271337855632,0.038429061488788926
1.6290271504525078,0.08163897782446798
1.6300271671194522,0.11313797778031187
1.6310271837863966,0.11561493574515241
1.632027200453341,0.10791666022062074
1.6330272171202855,0.09842226146677244
1.63402723378723,0.06914042707032325
1.6350272504541743,0.05461133541978146
1.636027267121119,0.11214407628978028
1.6370272837880633,0.05871850394844351
1.6380273004550077,0.12155281369086128
1.6390273171219523,0.05400657593186761
1.6400273337888966,0.05940465680051296
1.641027350455841,0.038504433335058486
1.6420273671227856,0.07959825548113947
1.64302738378973,0.07744973113011608
1.6440274004566744,0.055597564891050624
1.6450274171236188,0.09561404058393841
1.6460274337905634,0.10077686547066234
1.6470274504575078,0.06898246126146657
1.6480274671244521,0.10441109024239861
1.6490274837913967,0.14434534164626445
1.6500275004583411,0.03638400821103297
1.6510275171252855,0.1086138928696703
1.65202753379223,0.13255659160739003
1.6530275504591745,0.07909186878500457
1.6540275671261189,0.10710866346179777
1.6550275837930633,0.1346186676820029
1.6560276004600079,0.10590721754991539
1.6570276171269522,0.1346789692438735
1.6580276337938966,0.12955662967394696
1.6590276504608412,0.1195905752056527
1.6600276671277856,0.0705073645804089
1.66102768379473,0.09429020551230585
1.6620277004616746,0.05051778363505966
1.663027717128619,0.06800918519253249
1.6640277337955633,0.08044689392163293
1.665027750462508,0.0655477124709712
1.6660277671294523,0.1192834220246172
1.6670277837963967,0.09455571963312046
1.668027800463341,0.11076752548360526
1.6690278171302857,0.043573204722290065
1.67002783379723,0.13405895640749432
1.6710278504641745,0.04913588922210422
1.672027867131119,0.05984561427769639
1.6730278837980634,0.12183194188131818
1.6740279004650078,0.1085632110278143
1.6750279171319524,0.12379378884372333
1.6760279337988968,0.06447502187556821
1.6770279504658412,0.09859690862776581
1.6780279671327858,0.027786751944635018
1.6790279837997302,0.09069995043909351
1.6800280004666746,0.06306687670798487
1.681028017133619,0.08295812967667127
1.6820280338005635,0.14839943302020248
1.683028050467508,0.04811138694639719
1.6840280671344523,0.06740542236090354
1.685028083801397,0.09298378114114106
1.6860281004683413,0.12104957777128865
1.6870281171352857,0.06385183714366034
1.6880281338022303,0.04573499087357277
1.6890281504691746,0.0926198651436838
1.690028167136119,0.11160904189590325
1.6910281838030636,0.06815121481683213
1.692028200470008,0.10762755940131781
1.6930282171369524,0.038836462623195483
1.6940282338038968,0.046868146080991255
1.6950282504708414,0.11935984563475878
1.6960282671377858,0.06862141782788385
1.6970282838047301,0.04205817041211163
1.6980283004716747,0.07416336550993818
1.6990283171386191,0.06064026443648392
1.7000283338055635,0.08406813361048761
1.701028350472508,0.09954329377120134
1.7020283671394525,0.1481293604654698
1.7030283838063969,0.10761695684239331
1.7040284004733415,0.06018594005646339
1.7050284171402859,0.059586578170226584
1.7060284338072302,0.030755860790935757
1.7070284504741746,0.06564595586386424
1.7080284671411192,0.07752627746692826
1.7090284838080636,0.09998565825199465
1.710028500475008,0.11026507306630601
1.7110285171419526,0.04466887280365196
1.712028533808897,0.05904902203551527
1.7130285504758413,0.038026116775707844
1.714028567142786,0.06919451557001759
1.7150285838097303,0.03753055195563744
1.7160286004766747,0.04118291145679364
1.7170286171436193,0.0692276457149067
1.7180286338105637,0.12227906510772879
1.719028650477508,0.05633087884657484
1.7200286671444525,0.07495896231618078
1.721028683811397,0.10947725892715574
1.7220287004783414,0.08777119574983328
1.7230287171452858,0.07322625418541648
1.7240287338122304,0.09753511952745716
1.7250287504791748,0.11956401083119603
1.7260287671461192,0.1226457272506444
1.7270287838130638,0.06447078378518187
1.7280288004800082,0.06628754462950806
1.7290288171469526,0.06327235665115413
1.730028833813897,0.06690899742221158
1.7310288504808415,0.08556971035642691
1.732028867147786,0.06391518643989179
1.7330288838147303,0.10688413082359452
1.734028900481675,0.11852984170013305
1.7350289171486193,0.08926101977572128
1.7360289338155637,0.0987266083283947
1.7370289504825083,0.11513958654642724
1.7380289671494527,0.09511107246370432
1.739028983816397,0.11063620496172567
1.7400290004833416,0.07381704744173351
1.741029017150286,0.01574641566413068
1.7420290338172304,0.03847158833322182
1.7430290504841748,0.11870326089463144
1.7440290671511194,0.07032596854941202
1.7450290838180638,0.10637772532177386
1.7460291004850081,0.10894745033800021
1.7470291171519527,0.03297308807454812
1.7480291338188971,0.06919764901455525
1.7490291504858415,0.08611768382227034
1.7500291671527861,0.06857430035671996
1.7510291838197305,0.056438966012270275
1.7520292004866749,0.09853262904453022
1.7530292171536195,0.051004848249873586
1.7540292338205639,0.08692427742113726
1.7550292504875082,0.0682186551453067
1.7560292671544526,0.12936383352700243
1.7570292838213972,0.07985587492713708
1.7580293004883416,0.043367315489089446
1.759029317155286,0.06314322931733594
1.7600293338222306,0.03177839792622729
1.761029350489175,0.052713600035842675
1.7620293671561194,0.08854194884596371
1.763029383823064,0.10074454957383493
1.7640294004900083,0.06035276465560651
1.7650294171569527,0.11250196575372244
1.7660294338238973,0.05907831494305355
1.7670294504908417,0.01900810602439106
1.768029467157786,0.09655954151164832
1.7690294838247305,0.09736146297184273
1.770029500491675,0.02627966360010018
1.7710295171586194,0.06363666576862136
1.7720295338255638,0.029509939665594617
1.7730295504925084,0.07871752601119267
1.7740295671594528,0.09702139799823756
1.7750295838263972,0.04190973072895558
1.7760296004933418,0.08887820463225057
1.7770296171602862,0.11331491845758351
1.7780296338272306,0.0902435722786232
1.7790296504941752,0.12916496681768166
1.7800296671611195,0.03135745304943385
1.781029683828064,0.04808606731267192
1.7820297004950083,0.078217877400326
1.783029717161953,0.07241324163497312
1.7840297338288973,0.04021964016739979
1.7850297504958417,0.04757848288906739
1.7860297671627863,0.022947966453732586
1.7870297838297307,0.11194416474086497
1.788029800496675,0.0898128373750174
1.7890298171636196,0.07824203032760957
1.790029833830564,0.034034232847858094
1.7910298504975084,0.07600752052111709
1.792029867164453,0.035935836862300674
1.7930298838313974,0.1097540780295122
1.7940299004983418,0.08619023341497424
1.7950299171652861,0.06286012316756909
1.7960299338322308,0.09254396165193975
1.7970299504991751,0.060768016376288814
1.7980299671661195,0.11679853496005815
1.7990299838330641,0.03884701984711689
1.8000300005000085,0.11012063899488965
1.8010300171669529,0.11520322458158203
1.8020300338338975,0.10966416294058591
1.8030300505008419,0.05689537620078636
1.8040300671677862,0.08949531490525248
1.8050300838347306,0.04338903562686324
1.8060301005016752,0.0397933336221563
1.8070301171686196,0.10410401667717858
1.808030133835564,0.052321004664992454
1.8090301505025086,0.097980879320782
1.810030167169453,0.13962771121543002
1.8110301838363974,0.06633062650266267
1.812030200503342,0.06086477659514676
1.8130302171702863,0.10303208099897986
1.8140302338372307,0.07421527794306995
1.8150302505041753,0.035897641518159065
1.8160302671711197,0.06351232335710642
1.817030283838064,0.03625200306389156
1.8180303005050085,0.0468379214120554
1.819030317171953,0.04206816513083955
1.8200303338388975,0.05407478055980182
1.8210303505058418,0.06435988897305642
1.8220303671727864,0.04901731049175438
1.8230303838397308,0.12369667798215424
1.8240304005066752,0.10196150494003481
1.8250304171736198,0.1225955204445986
1.8260304338405642,0.10429233532744367
1.8270304505075086,0.0773138558584113
1.8280304671744532,0.05279510103023717
1.8290304838413975,0.05122713619962642
1.830030500508342,0.1234761835515785
1.8310305171752863,0.11634034821720553
1.832030533842231,0.10905169455230991
1.8330305505091753,0.04450777947665681
1.8340305671761197,0.12027393662976965
1.8350305838430643,0.10735484850831237
1.8360306005100087,0.06646545576007339
1.837030617176953,0.0522391649600501
1.8380306338438976,0.047976430463715206
1.839030650510842,0.043711090015709185
1.8400306671777864,0.09445764053420841
1.841030683844731,0.09837124053992437
1.8420307005116754,0.037662525590299666
1.8430307171786198,0.03481041297362636
1.8440307338455642,0.09349032633365778
1.8450307505125088,0.0920163344384147
1.8460307671794531,0.044291891086168905
1.8470307838463975,0.12134402634290636
1.8480308005133421,0.03914170520489901
1.8490308171802865,0.12116280562092599
1.8500308338472309,0.04794161847873455
1.8510308505141755,0.08126605761167564
1.8520308671811199,0.08732046476065881
1.8530308838480642,0.0380528970106401
1.8540309005150089,0.050673394625439704
1.8550309171819532,0.070309710885932
1.8560309338488976,0.055567513892015655
1.857030950515842,0.04648827239506203
1.8580309671827866,0.06275976358044338
1.859030983849731,0.06928520789169657
1.8600310005166754,0.036433988172080205
1.86103101718362,0.03953533061449385
1.8620310338505643,0.10223842814678198
1.8630310505175087,0.0879397502491064
1.8640310671844533,0.09550276721107348
1.8650310838513977,0.12197145308769812
1.866031100518342,0.04656601985017386
1.8670311171852865,0.03908187798919406
1.868031133852231,0.11323397110867843
1.8690311505191755,0.04910126859420606
1.8700311671861198,0.05407771800781058
1.8710311838530644,0.076225300270404
1.8720312005200088,0.11509212608087964
1.8730312171869532,0.12480037989271779
1.8740312338538978,0.09973359389320101
1.8750312505208422,0.061635962905691816
1.8760312671877866,0.07841805878770697
1.8770312838547312,0.09436997598999797
1.8780313005216756,0.08153652829131061
1.87903131718862,0.1009533274775594
1.8800313338555643,0.07314583268131414
1.881031350522509,0.10346291624774581
1.8820313671894533,0.025664434775668512
1.8830313838563977,0.1197897506351604
1.8840314005233423,0.06666848845886542
1.8850314171902867,0.11783287886223126
1.886031433857231,0.09999511656620778
1.8870314505241756,0.08803762224727725
1.88803146719112,0.008311052828758929
1.8890314838580644,0.10726904250623456
1.890031500525009,0.09689911785225618
1.8910315171919534,0.07172444741042631
1.8920315338588978,0.062283697592890264
1.8930315505258422,0.05968209523276247
1.8940315671927868,0.03897786957251528
1.8950315838597311,0.12004277155680618
1.8960316005266755,0.09077890916837722
1.8970316171936201,0.058550394089668105
1.8980316338605645,0.07094469138079271
1.8990316505275089,0.04923593988291332
1.9000316671944535,0.045287732075651704
1.9010316838613979,0.08741910890800522
1.9020317005283423,0.12510905302161762
1.9030317171952869,0.04421614812623498
1.9040317338622312,0.09084146788159828
1.9050317505291756,0.08558893550293528
1.90603176719612,0.061436761064341455
1.9070317838630646,0.026978613884775585
1.908031800530009,0.0579893860087133
1.9090318171969534,0.07792401249297477
1.910031833863898,0.09249448839191138
1.9110318505308423,0.1128570144174496
1.9120318671977867,0.10772637622749055
1.9130318838647313,0.04663829844355021
1.9140319005316757,0.1225940093162041
1.91503191719862,0.09084834114402328
1.9160319338655647,0.02268375848794614
1.917031950532509,0.10551714938586972
1.9180319671994535,0.08885616071136557
1.9190319838663978,0.10680874527181304
1.9200320005333424,0.08184546220633772
1.9210320172002868,0.05638906462835401
1.9220320338672312,0.08037131382568248
1.9230320505341758,0.06158231634719598
1.9240320672011202,0.13992825636638961
1.9250320838680646,0.069545170966045
1.9260321005350092,0.06461159382317141
1.9270321172019536,0.07146608614762807
1.928032133868898,0.05794736367039247
1.9290321505358425,0.03750167865172507
1.930032167202787,0.10518077441435073
1.9310321838697313,0.09555679449560373
1.9320322005366757,0.08431323508044933
1.9330322172036203,0.059694230099151965
1.9340322338705647,0.10169012702084607
1.935032250537509,0.060043227664086304
1.9360322672044536,0.12739759723841013
1.937032283871398,0.023099692263289652
1.9380323005383424,0.06293078070081976
1.939032317205287,0.11178482390032017
1.9400323338722314,0.0901127760042807
1.9410323505391758,0.09709423824008347
1.9420323672061202,0.12458085876073638
1.9430323838730648,0.028141957123855508
1.9440324005400091,0.10459560193576131
1.9450324172069535,0.049918405703045475
1.9460324338738981,0.03127438847624049
1.9470324505408425,0.05856157082394748
1.9480324672077869,0.059411341200190246
1.9490324838747315,0.1334128811804827
1.9500325005416759,0.07877605861944466
1.9510325172086203,0.04805716879481445
1.9520325338755649,0.11273541689901519
1.9530325505425092,0.06716100420443458
1.9540325672094536,0.1283708772687446
1.955032583876398,0.0881554930416217
1.9560326005433426,0.06967874919701389
1.957032617210287,0.07951072566693423
1.9580326338772314,0.09422745551396125
1.959032650544176,0.0202727281965153
1.9600326672111203,0.1329214061730066
1.9610326838780647,0.03193687009271161
1.9620327005450093,0.0797475345614828
1.9630327172119537,0.13249060333403284
1.964032733878898,0.07693261096649866
1.9650327505458427,0.10416912190573019
1.966032767212787,0.043060239909405336
1.9670327838797315,0.09712974798186606
1.9680328005466758,0.07380152789839356
1.9690328172136204,0.08515567543188068
1.9700328338805648,0.13197062198600082
1.9710328505475092,0.0419486779330114
1.9720328672144538,0.10603888695769284
1.9730328838813982,0.09083099370561082
1.9740329005483426,0.09899291467231668
1.9750329172152872,0.08769361961739348
1.9760329338822316,0.08440288750283531
1.977032950549176,0.08920687546810473
1.9780329672161205,0.05444264657306448
1.979032983883065,0.054771018875061056
1.9800330005500093,0.027006324513171313
1.9810330172169537,0.09323233733122292
1.9820330338838983,0.09629196890897596
1.9830330505508427,0.05755660243981445
1.984033067217787,0.08964746762517904
1.9850330838847317,0.09506967665572634
1.986033100551676,0.10172012315193435
1.9870331172186204,0.06464161786339587
1.988033133885565,0.11143422653077126
1.9890331505525094,0.1018535609000422
1.9900331672194538,0.11528344093895716
1.9910331838863984,0.12285379204564645
1.9920332005533428,0.07171995869682424
1.9930332172202871,0.04805741784651442
1.9940332338872315,0.114921939663502
1.9950332505541761,0.11656019678079507
1.9960332672211205,0.11482368422206697
1.997033283888065,0.09325197693605738
1.9980333005550095,0.09837399568422138
1.9990333172219539,0.08557621606876768
2.0000333338888985,0.055230685983316014
2.0010333505558426,0.1410744638526282
2.0020333672227872,0.05631077838765365
2.003033383889732,0.0685349514448349
2.004033400556676,0.040479572708304976
2.0050334172236206,0.09160796204136057
2.006033433890565,0.015538647106173323
2.0070334505575094,0.10298373949866135
2.008033467224454,0.08862230699652769
2.0090334838913986,0.05651722798628557
2.0100335005583427,0.03799901764675427
2.0110335172252873,0.11442460868602383
2.0120335338922315,0.09497318517463219
2.013033550559176,0.057209696589610226
2.0140335672261207,0.061157192992554676
2.015033583893065,0.09736806152202042
2.0160336005600095,0.0496842355060573
2.017033617226954,0.0504894936385637
2.0180336338938982,0.041400766785084656
2.019033650560843,0.08345319815199789
2.0200336672277874,0.12484025440149181
2.0210336838947316,0.10990418573640348
2.022033700561676,0.07366267601784465
2.023033717228621,0.0944076900209327
2.024033733895565,0.053042516149929456
2.0250337505625096,0.09728300454376627
2.026033767229454,0.03680948283109092
2.0270337838963983,0.09010618355513295
2.028033800563343,0.08527827861915899
2.0290338172302875,0.09934415558280342
2.0300338338972317,0.07206517929171137
2.0310338505641763,0.04487736885698634
2.032033867231121,0.07220033857818572
2.033033883898065,0.08415709722279663
2.0340339005650097,0.059997014869707585
2.0350339172319543,0.10530842182362077
2.0360339338988984,0.10784736965584561
2.037033950565843,0.09665040488908505
2.038033967232787,0.07940584841560919
2.039033983899732,0.06927478667411859
2.0400340005666764,0.09804653558732564
2.0410340172336205,0.06523501717938789
2.042034033900565,0.05858981172692088
2.0430340505675098,0.10094742500251705
2.044034067234454,0.10061148790821216
2.0450340839013985,0.039655106566293154
2.046034100568343,0.13029880574266245
2.0470341172352873,0.11550985569041303
2.048034133902232,0.06162678295730088
2.0490341505691765,0.05140098100456552
2.0500341672361206,0.0319228014987696
2.0510341839030652,0.11479622322870704
2.05203420057001,0.1290848342651127
2.053034217236954,0.034597482038051186
2.0540342339038986,0.060286702504620954
2.055034250570843,0.09420416788000487
2.0560342672377874,0.09107317772527612
2.057034283904732,0.1282389654413734
2.0580343005716766,0.1324494601267694
2.0590343172386207,0.043391428785273536
2.0600343339055653,0.10379689109424974
2.0610343505725095,0.08438827455173886
2.062034367239454,0.04419386255105789
2.0630343839063987,0.09173832708092276
2.064034400573343,0.08645935168749834
2.0650344172402875,0.06214132564852123
2.066034433907232,0.032752441034417934
2.0670344505741762,0.06571655487472572
2.068034467241121,0.11069966492210055
2.0690344839080654,0.0743391561875279
2.0700345005750096,0.11796521428349127
2.071034517241954,0.11205228483852753
2.072034533908899,0.0958826906148834
2.073034550575843,0.05876199272772249
2.0740345672427876,0.052036833384005124
2.075034583909732,0.11266229676399547
2.0760346005766763,0.08820895576646483
2.077034617243621,0.14316454852301716
2.0780346339105655,0.09461092259208538
2.0790346505775097,0.03925147277383202
2.0800346672444543,0.08069976746558787
2.081034683911399,0.045354122252026174
2.082034700578343,0.09091127521954402
2.0830347172452877,0.06796054101394615
2.0840347339122323,0.06670894537398969
2.0850347505791764,0.09510526274615572
2.086034767246121,0.09397585727581209
2.087034783913065,0.10419871505526175
2.08803480058001,0.042190550809312485
2.0890348172469544,0.08700714976147184
2.0900348339138985,0.0422748586434491
2.091034850580843,0.08328722261342703
2.0920348672477878,0.12587223307882014
2.093034883914732,0.10548587873975158
2.0940349005816765,0.07269253133954401
2.095034917248621,0.12377994936086117
2.0960349339155653,0.0577905826517288
2.09703495058251,0.12321355128640056
2.0980349672494545,0.08435774075523113
2.0990349839163986,0.0966829689317922
2.1000350005833432,0.037659699671215234
2.101035017250288,0.02668548300787159
2.102035033917232,0.1188732995855232
2.1030350505841766,0.06701736086601826
2.104035067251121,0.06605189455211392
2.1050350839180654,0.06175808979438272
2.10603510058501,0.05193198056662407
2.1070351172519546,0.09480456979374365
2.1080351339188987,0.033602277829538514
2.1090351505858433,0.0777821654143668
2.110035167252788,0.10139021405670712
2.111035183919732,0.02026000772618508
2.1120352005866767,0.10822546083296701
2.113035217253621,0.0419816246979081
2.1140352339205655,0.08019357192945281
2.11503525058751,0.06549090234993561
2.1160352672544542,0.0909260559958436
2.117035283921399,0.0495373476446798
2.1180353005883434,0.03422187996291847
2.1190353172552876,0.06507720169489585
2.120035333922232,0.07920581982646138
2.121035350589177,0.1016153606436108
2.122035367256121,0.0326359107588699
2.1230353839230656,0.10710295925893472
2.12403540059001,0.03517444259153552
2.1250354172569543,0.06893699927767631
2.126035433923899,0.10005693965695923
2.1270354505908435,0.07564640815724685
2.1280354672577877,0.05571665182468862
2.1290354839247323,0.07417713705615478
2.130035500591677,0.12030033828389725
2.131035517258621,0.09775692171404865
2.1320355339255657,0.10806227041754864
2.1330355505925103,0.12017403921692865
2.1340355672594544,0.03729115071310538
2.135035583926399,0.04022951963142389
2.136035600593343,0.12118745179853091
2.137035617260288,0.07011420842795736
2.1380356339272324,0.12391047960841467
2.1390356505941766,0.05017688388511576
2.140035667261121,0.01831835999601836
2.1410356839280658,0.08237092255043835
2.14203570059501,0.06052123140790602
2.1430357172619545,0.13739087849206735
2.144035733928899,0.07618336833969255
2.1450357505958433,0.08163612863804948
2.146035767262788,0.05730192915705838
2.1470357839297325,0.03303531700196397
2.1480358005966766,0.09854324763499309
2.1490358172636213,0.05798316232883536
2.150035833930566,0.05763246525106879
2.15103585059751,0.11735533827569085
2.1520358672644546,0.03030567133072791
2.153035883931399,0.10046204839587236
2.1540359005983434,0.12011945342995188
2.155035917265288,0.11465827412118544
2.1560359339322326,0.07088038194345676
2.1570359505991767,0.09818739851768175
2.1580359672661213,0.11192425575276763
2.159035983933066,0.06278230911804158
2.16003600060001,0.09412426875176916
2.1610360172669547,0.09126141232949928
2.162036033933899,0.11724752276150782
2.1630360506008435,0.10269406576942286
2.164036067267788,0.12151537753685797
2.1650360839347322,0.048960473844039135
2.166036100601677,0.05923534815680964
2.1670361172686214,0.12787904510184012
2.1680361339355656,0.03275250922285941
2.16903615060251,0.09814184562036458
2.170036167269455,0.07435057571497954
2.171036183936399,0.05968903030369574
2.1720362006033436,0.0960579234685145
2.173036217270288,0.10593192837118959
2.1740362339372323,0.0735122988037421
2.175036250604177,0.08896839421861197
2.1760362672711215,0.14167023314751173
2.1770362839380657,0.08264065457677225
2.1780363006050103,0.027296959289843964
2.179036317271955,0.08218184796096668
2.180036333938899,0.11889591006695617
2.1810363506058437,0.07668786760604798
2.1820363672727883,0.08574980390369588
2.1830363839397324,0.02132006407742914
2.184036400606677,0.12187679697695279
2.1850364172736216,0.11986320182850907
2.186036433940566,0.035412402830612186
2.1870364506075104,0.12199053583377484
2.1880364672744546,0.07853824799338041
2.189036483941399,0.07268584248128464
2.1900365006083438,0.04157195747350907
2.191036517275288,0.04203110660655024
2.1920365339422325,0.09679595237912633
2.193036550609177,0.07876153832302367
2.1940365672761213,0.13094636221927303
2.195036583943066,0.04661589391445797
2.1960366006100105,0.05784126308663545
2.1970366172769547,0.10487668698685466
2.1980366339438993,0.07669015012513078
2.199036650610844,0.08685942188682627
2.200036667277788,0.08526251416925976
2.2010366839447326,0.1304255954661621
2.2020367006116772,0.060711983023125346
2.2030367172786214,0.09905880380712824
2.204036733945566,0.12209104132881222
2.2050367506125106,0.09311981213554059
2.2060367672794547,0.06969130601777375
2.2070367839463993,0.1034271397795543
2.208036800613344,0.031656937620083675
2.209036817280288,0.08153838940041258
2.2100368339472327,0.037867128707451875
2.211036850614177,0.08954517144515331
2.2120368672811215,0.05785250774803809
2.213036883948066,0.13962057025364522
2.2140369006150102,0.043031808728284396
2.215036917281955,0.10807453214129444
2.2160369339488994,0.12269994178830723
2.2170369506158436,0.04212591282271436
2.218036967282788,0.15111154457192683
2.219036983949733,0.0323122302480358
2.220037000616677,0.09960257391852474
2.2210370172836216,0.12359209463774923
2.222037033950566,0.12649711927697205
2.2230370506175103,0.03376927998334366
2.224037067284455,0.06457798305852983
2.2250370839513995,0.040184012763548896
2.2260371006183437,0.08632180351685119
2.2270371172852883,0.11131051790211216
2.228037133952233,0.12643313100412826
2.229037150619177,0.11670000957167734
2.2300371672861217,0.028751150165168844
2.2310371839530663,0.09878207520437224
2.2320372006200104,0.08195955506918955
2.233037217286955,0.043417746308339715
2.2340372339538996,0.066969130831954
2.235037250620844,0.10612914009285823
2.2360372672877884,0.08819674447907319
2.2370372839547326,0.029643275230908192
2.238037300621677,0.026599300776109003
2.2390373172886218,0.12858057934172043
2.240037333955566,0.04799373635302312
2.2410373506225105,0.03569813343328643
2.242037367289455,0.09941598152181283
2.2430373839563993,0.1087697030962989
2.244037400623344,0.07851005368732038
2.2450374172902885,0.0499489410209924
2.2460374339572327,0.09517618045294463
2.2470374506241773,0.038080640841066694
2.248037467291122,0.04108861085962735
2.249037483958066,0.09472024580786677
2.2500375006250106,0.11881172480859166
2.2510375172919552,0.07467064258972858
2.2520375339588994,0.0868530559334048
2.253037550625844,0.032566370715668196
2.2540375672927886,0.04630119124433458
2.2550375839597327,0.05749865787920956
2.2560376006266774,0.0913268993329198
2.257037617293622,0.06887704884783322
2.258037633960566,0.034525502672037856
2.2590376506275107,0.1117703091803088
2.2600376672944553,0.03563454632016993
2.2610376839613995,0.017136970332035435
2.262037700628344,0.12165995009816369
2.2630377172952882,0.13179361904144038
2.264037733962233,0.1095407423672515
2.2650377506291774,0.10078227049915076
2.2660377672961216,0.07594677154252383
2.267037783963066,0.08395316258243375
2.268037800630011,0.12340349988903844
2.269037817296955,0.050396264691886405
2.2700378339638996,0.02726924472499502
2.271037850630844,0.026424428381829165
2.2720378672977883,0.06485833966017111
2.273037883964733,0.06665236209965099
2.2740379006316775,0.0419509881062813
2.2750379172986217,0.09982058197204541
2.2760379339655663,0.06387592121658651
2.277037950632511,0.048047348709999625
2.278037967299455,0.09971582352466486
2.2790379839663997,0.09039893522785963
2.2800380006333443,0.04572008035938463
2.2810380173002884,0.08329520215972455
2.282038033967233,0.029084894549708272
2.2830380506341776,0.12771917876518898
2.284038067301122,0.1327613175183612
2.2850380839680664,0.07802302131863124
2.2860381006350106,0.06343197177322465
2.287038117301955,0.061893756519960166
2.2880381339688998,0.040516175771420505
2.289038150635844,0.04864456163181491
2.2900381673027885,0.03940013150128294
2.291038183969733,0.10549792517232216
2.2920382006366773,0.10341294792413357
2.293038217303622,0.03493367992408125
2.2940382339705665,0.13512917837464544
2.2950382506375107,0.12122455614000281
2.2960382673044553,0.039770144379484874
2.2970382839714,0.06831396756720565
2.298038300638344,0.12325359480643895
2.2990383173052886,0.1272476140211712
2.3000383339722332,0.0782883337565225
2.3010383506391774,0.04596347642607506
2.302038367306122,0.1220366871435535
2.3030383839730666,0.043513559918829714
2.3040384006400108,0.0571489633437245
2.3050384173069554,0.1305596358272272
2.3060384339739,0.04606499805522831
2.307038450640844,0.03848344013169969
2.3080384673077887,0.10037973364107754
2.3090384839747333,0.0555748430829679
2.3100385006416775,0.0339412735768038
2.311038517308622,0.05518291066680042
2.3120385339755662,0.13265932266026262
2.313038550642511,0.0928178520404586
2.3140385673094555,0.03893412927026163
2.3150385839763996,0.08441619678147348
2.316038600643344,0.08314931748927253
2.317038617310289,0.09159166476319423
2.318038633977233,0.10147598520247922
2.3190386506441776,0.10406503736357577
2.320038667311122,0.08620003642164407
2.3210386839780663,0.07095717991673285
2.322038700645011,0.13160341162086614
2.3230387173119555,0.09883343937238415
2.3240387339788997,0.09586486760910284
2.3250387506458443,0.11377508332727161
2.326038767312789,0.11889561985521684
2.327038783979733,0.12944955562116184
2.3280388006466777,0.13325229773165187
2.3290388173136223,0.038190682062188064
2.3300388339805664,0.10857168207594474
2.331038850647511,0.06979651481685695
2.3320388673144556,0.06780462067889928
2.3330388839814,0.04485839281376949
2.3340389006483444,0.04566672419035118
2.335038917315289,0.11007471429594219
2.336038933982233,0.1091031011050295
2.3370389506491778,0.08941548813979158
2.338038967316122,0.10720155394485766
2.3390389839830665,0.10983002788726093
2.340039000650011,0.08653948977647448
2.3410390173169553,0.0842493794453714
2.3420390339839,0.03604941578919985
2.3430390506508445,0.05311821740783116
2.3440390673177887,0.09853206128194213
2.3450390839847333,0.060539888669354815
2.346039100651678,0.07672562616041609
2.347039117318622,0.05963236046813973
2.3480391339855666,0.048235852903197395
2.3490391506525112,0.04744668893191535
2.3500391673194554,0.08746737404479953
2.3510391839864,0.11920560821926456
2.3520392006533446,0.0715540336981008
2.3530392173202888,0.04599542492530201
2.3540392339872334,0.03251582862344763
2.355039250654178,0.03700242519016206
2.356039267321122,0.11272289079170283
2.3570392839880667,0.052288589970638684
2.3580393006550113,0.06433670761581686
2.3590393173219555,0.11153935516165193
2.3600393339889,0.08221102543428863
2.3610393506558442,0.08696451118247492
2.362039367322789,0.09094463455545332
2.3630393839897335,0.11651930512206975
2.3640394006566776,0.08069918329764342
2.365039417323622,0.0899613540030658
2.366039433990567,0.12914078987148653
2.367039450657511,0.11202619517748226
2.3680394673244556,0.06854961096029973
2.3690394839914,0.07668201883894943
2.3700395006583443,0.0022471225974776687
2.371039517325289,0.061583048880975
2.3720395339922336,0.07295069339910583
2.3730395506591777,0.04201361995606278
2.3740395673261223,0.05822633204929006
2.375039583993067,0.09760688405266915
2.376039600660011,0.11762419764407929
2.3770396173269557,0.04923534881844927
2.3780396339939003,0.1102286960820972
2.3790396506608444,0.11952789088895674
2.380039667327789,0.11000539320431216
2.3810396839947336,0.12852896770848396
2.382039700661678,0.08630015639733056
2.3830397173286224,0.07685379073293938
2.384039733995567,0.12905704093106507
2.385039750662511,0.04736250179705072
2.3860397673294558,0.08473878112469903
2.3870397839964,0.03231578540707064
2.3880398006633445,0.06856534917709103
2.389039817330289,0.045236754532825926
2.3900398339972333,0.1088343284288084
2.391039850664178,0.05376671522323325
2.3920398673311225,0.0711697249819701
2.3930398839980667,0.0683572943683025
2.3940399006650113,0.0982275260967147
2.395039917331956,0.12259380637632597
2.3960399339989,0.12803729581244094
2.3970399506658446,0.0769109429970267
2.3980399673327892,0.03424685572651019
2.3990399839997334,0.09033999585783534
2.400040000666678,0.1072153707764541
2.4010400173336226,0.05938455926617096
2.4020400340005668,0.06247437450733715
2.4030400506675114,0.07050350991683842
2.404040067334456,0.09544846990089363
2.4050400840014,0.08055578576264119
2.4060401006683447,0.0347529196069908
2.4070401173352893,0.04466781162676737
2.4080401340022335,0.11271182365033756
2.409040150669178,0.09386517668544739
2.4100401673361227,0.04500154654547754
2.411040184003067,0.09512148653796325
2.4120402006700115,0.07084655861225969
2.4130402173369556,0.12765681438770082
2.4140402340039,0.05100406076392178
2.415040250670845,0.0719054205217558
2.416040267337789,0.09406350332363834
2.4170402840047336,0.13166240522477524
2.418040300671678,0.09532988889867428
2.4190403173386223,0.06575966511445315
2.420040334005567,0.11147554586073163
2.4210403506725116,0.05369845801110608
2.4220403673394557,0.0314242160776122
2.4230403840064003,0.08822482637245474
2.424040400673345,0.07391436016182769
2.425040417340289,0.10905097565985154
2.4260404340072337,0.05461309967051805
2.4270404506741783,0.09844052361330806
2.4280404673411224,0.038440642863633544
2.429040484008067,0.023759780332824373
2.4300405006750116,0.10485719731052867
2.431040517341956,0.08013099935556475
2.4320405340089004,0.07987264727563387
2.433040550675845,0.07125501058386886
2.434040567342789,0.07955648594121321
2.4350405840097338,0.0503000670845971
2.436040600676678,0.0550778514203738
2.4370406173436225,0.10984685437721899
2.438040634010567,0.09067772970156956
2.4390406506775113,0.07011895874468209
2.440040667344456,0.010242834197766313
2.4410406840114005,0.09578796365677515
2.4420407006783447,0.10157872861083121
2.4430407173452893,0.052340765537887086
2.444040734012234,0.033525814084591835
2.445040750679178,0.03505563322146547
2.4460407673461226,0.10225535276498307
2.4470407840130672,0.07477394707186824
2.4480408006800114,0.05315574554623981
2.449040817346956,0.10205964153130237
2.4500408340139006,0.02423428647289148
2.4510408506808448,0.03343054160028404
2.4520408673477894,0.10249998495343433
2.453040884014734,0.03625504590823927
2.454040900681678,0.11286524553967123
2.4550409173486227,0.06838430842763271
2.4560409340155673,0.07046212392488564
2.4570409506825115,0.03169511400363443
2.458040967349456,0.1100503697526423
2.4590409840164007,0.04012182883440428
2.460041000683345,0.06494101219470082
2.4610410173502895,0.1001004920759311
2.4620410340172336,0.047822427746319465
2.4630410506841782,0.10086392362192202
2.464041067351123,0.059122029560682236
2.465041084018067,0.07266188337424226
2.4660411006850116,0.0380600402600051
2.467041117351956,0.09765520361815765
2.4680411340189004,0.12712448916357388
2.469041150685845,0.06859260783826293
2.4700411673527896,0.1109279753550622
2.4710411840197337,0.10345464865028932
2.4720412006866783,0.05344251251739453
2.473041217353623,0.11282958545219884
2.474041234020567,0.029498287771082547
2.4750412506875117,0.09742879196119801
2.4760412673544563,0.0822578042015174
2.4770412840214004,0.06762887588180644
2.478041300688345,0.043486136143909296
2.4790413173552897,0.09908416841699012
2.480041334022234,0.06705870070664562
2.4810413506891784,0.07686398532189981
2.482041367356123,0.049331689175285146
2.483041384023067,0.07489890397246353
2.484041400690012,0.13594397846226863
2.4850414173569564,0.08412202132560045
2.4860414340239005,0.07444679403665669
2.487041450690845,0.11486216619628603
2.4880414673577893,0.029092136809177827
2.489041484024734,0.04475264845731185
2.4900415006916785,0.05433099259919009
2.4910415173586227,0.08160858734970028
2.4920415340255673,0.03330704824417849
2.493041550692512,0.04187029664115223
2.494041567359456,0.060577058453515
2.4950415840264006,0.04533441877060508
2.4960416006933452,0.029916906107124216
2.4970416173602894,0.12575630593113454
2.498041634027234,0.05732358920796023
2.4990416506941786,0.12989990724092926
2.5000416673611228,0.11045936707527734
2.5010416840280674,0.08577052797766578
2.502041700695012,0.12631839744648013
2.503041717361956,0.0650389196316106
2.5040417340289007,0.042118201720918104
2.5050417506958453,0.11469771632790379
2.5060417673627895,0.04739744626152215
2.507041784029734,0.02206159733298286
2.5080418006966787,0.08413030934636258
2.509041817363623,0.03989924646040219
2.5100418340305675,0.08387167161271192
2.5110418506975116,0.12505810979420193
2.5120418673644562,0.11077084224389787
2.513041884031401,0.09387407034040571
2.514041900698345,0.05939771719033431
2.5150419173652896,0.0707884536626017
2.516041934032234,0.08239360717782687
2.5170419506991784,0.09930796872545632
2.518041967366123,0.08036703339648778
2.5190419840330676,0.12181285606107876
2.5200420007000117,0.08725924150281353
2.5210420173669563,0.055068779316041476
2.522042034033901,0.04017153793470703
2.523042050700845,0.07709080320181336
2.5240420673677897,0.061871048877986744
2.5250420840347343,0.09293728891524944
2.5260421007016785,0.09853324169375884
2.527042117368623,0.04471381472879441
2.5280421340355677,0.09603572185739369
2.529042150702512,0.09457630067911482
2.5300421673694564,0.11818494070347009
2.531042184036401,0.03972332616760407
2.532042200703345,0.050283655364926835
2.53304221737029,0.07313641657080797
2.5340422340372344,0.06575382860789819
2.5350422507041785,0.12872592757748527
2.536042267371123,0.04477893784751903
2.5370422840380673,0.06585666138696401
2.538042300705012,0.026802513358620474
2.5390423173719565,0.07607516361757242
2.5400423340389007,0.11054438395488608
2.5410423507058453,0.06146821752404308
2.54204236737279,0.048507184235465954
2.543042384039734,0.04595189714718123
2.5440424007066786,0.06488915579935378
2.5450424173736232,0.07310391174856094
2.5460424340405674,0.1044158113534436
2.547042450707512,0.0369704833562806
2.5480424673744566,0.04658611706918051
2.5490424840414008,0.05533954627732351
2.5500425007083454,0.09939394483822744
2.55104251737529,0.1072363736506478
2.552042534042234,0.07242866367967471
2.5530425507091787,0.11197708061485738
2.5540425673761233,0.09337618745106455
2.5550425840430675,0.07856290775196634
2.556042600710012,0.09712524626444927
2.5570426173769567,0.11656672616797102
2.558042634043901,0.07503525394052295
2.5590426507108455,0.04991686756531546
2.5600426673777896,0.026167169920386774
2.5610426840447342,0.06113245212265734
2.562042700711679,0.08139275601329271
2.563042717378623,0.07393473872171433
2.5640427340455676,0.11723913078956522
2.565042750712512,0.07784750742590653
2.5660427673794564,0.05223572736635107
2.567042784046401,0.06730991900243397
2.5680428007133456,0.11298367974901607
2.5690428173802897,0.06888764177717614
2.5700428340472343,0.04473030619332541
2.571042850714179,0.08600646166362604
2.572042867381123,0.12643849378602504
2.5730428840480677,0.04513572349847555
2.5740429007150123,0.0601895261463068
2.5750429173819565,0.06399422956513441
2.576042934048901,0.10925048769528149
2.5770429507158457,0.1025173482766177
2.57804296738279,0.05976098466146236
2.5790429840497344,0.06583978804147439
2.580043000716679,0.11948877871436617
2.581043017383623,0.11064420822669721
2.582043034050568,0.0885689216432655
2.5830430507175124,0.08757206218644147
2.5840430673844565,0.03160694665494551
2.585043084051401,0.1169661946864898
2.5860431007183453,0.06651346867919265
2.58704311738529,0.06792849311102345
2.5880431340522345,0.040845170065551724
2.5890431507191787,0.10319219744171071
2.5900431673861233,0.04550592013191086
2.591043184053068,0.05870654782519998
2.592043200720012,0.09721635894734611
2.5930432173869566,0.11627220715596893
2.5940432340539012,0.11756359303274025
2.5950432507208454,0.10071032820501677
2.59604326738779,0.1161245014790189
2.5970432840547346,0.062245456487325615
2.5980433007216788,0.08165196234664672
2.5990433173886234,0.06946109650010368
2.600043334055568,0.08964571775923534
2.601043350722512,0.136460304016907
2.6020433673894567,0.04092489791970576
2.6030433840564013,0.11142077263810213
2.6040434007233455,0.11982083997223629
2.60504341739029,0.08408659359033431
2.6060434340572347,0.023107748300679364
2.607043450724179,0.05917025461963908
2.6080434673911235,0.12728176594411048
2.609043484058068,0.052942984726036556
2.6100435007250122,0.07667375251546689
2.611043517391957,0.11383606219146399
2.612043534058901,0.07410721101802117
2.6130435507258456,0.10229910364873397
2.61404356739279,0.12948260171792175
2.6150435840597344,0.07544710027232636
2.616043600726679,0.03301728984223822
2.6170436173936236,0.0994263199353949
2.6180436340605677,0.052690327206458824
2.6190436507275123,0.051363739506486206
2.620043667394457,0.12676624266815212
2.621043684061401,0.09792831725223465
2.6220437007283457,0.0397308011318363
2.6230437173952903,0.08180905348028236
2.6240437340622345,0.13262904871262773
2.625043750729179,0.08622877770073657
2.6260437673961237,0.034694329217537005
2.627043784063068,0.11848454557103916
2.6280438007300124,0.041504782653858235
2.629043817396957,0.09530614916065706
2.630043834063901,0.05474963766363164
2.631043850730846,0.14308843654866
2.6320438673977904,0.07687323024335106
2.6330438840647346,0.11688065703370841
2.634043900731679,0.07036697180788942
2.6350439173986233,0.047943345393203815
2.636043934065568,0.057764925911653345
2.6370439507325125,0.11137391420968047
2.6380439673994567,0.03764832747091211
2.6390439840664013,0.1160857142886129
2.640044000733346,0.07528445502958346
2.64104401740029,0.09835359902328678
2.6420440340672346,0.04702075772291994
2.6430440507341793,0.09870531628487177
2.6440440674011234,0.06020267157940874
2.645044084068068,0.051207188170216786
2.6460441007350126,0.08660918472462949
2.6470441174019568,0.05661150665824604
2.6480441340689014,0.07667594058565924
2.649044150735846,0.05883849906363289
2.65004416740279,0.11106245266268616
2.6510441840697347,0.05876530972022448
2.6520442007366793,0.05111670621552343
2.6530442174036235,0.11468953263185663
2.654044234070568,0.10037287566358942
2.6550442507375127,0.09856593179497751
2.656044267404457,0.06843662095312077
2.6570442840714015,0.10749444303275832
2.658044300738346,0.10624197357518035
2.6590443174052902,0.05414567580946366
2.660044334072235,0.09086129205198847
2.661044350739179,0.0750438689172362
2.6620443674061236,0.0974973901860199
2.663044384073068,0.07627409153705038
2.6640444007400124,0.10292036508919766
2.665044417406957,0.11665925878080131
2.6660444340739016,0.06381785234159341
2.6670444507408457,0.11736982823448008
2.6680444674077903,0.06869603034059833
2.669044484074735,0.0388574471407759
2.670044500741679,0.10364150954820538
2.6710445174086237,0.07496779045150974
2.6720445340755683,0.11639343063711086
2.6730445507425125,0.11455030336833352
2.674044567409457,0.04669588629591977
2.6750445840764017,0.03357750775792358
2.676044600743346,0.11598341855869923
2.6770446174102904,0.11799935095132599
2.678044634077235,0.09273651702056213
2.679044650744179,0.12656789574488025
2.680044667411124,0.09725131449707833
2.6810446840780684,0.10850135693596075
2.6820447007450126,0.04459623644252436
2.683044717411957,0.06600278165314723
2.6840447340789018,0.12507490335615723
2.685044750745846,0.09143243687649194
2.6860447674127905,0.06594521187944477
2.6870447840797347,0.02946393858524403
2.6880448007466793,0.10790176470787184
2.689044817413624,0.09320170897828926
2.690044834080568,0.10044633369722279
2.6910448507475127,0.07157025613647625
2.6920448674144573,0.10056306341986179
2.6930448840814014,0.09771300004840155
2.694044900748346,0.13125178429364034
2.6950449174152906,0.06079290215541547
2.696044934082235,0.0985753689871803
2.6970449507491794,0.07562811985408133
2.698044967416124,0.0767058053922921
2.699044984083068,0.048593024966538174
2.7000450007500127,0.008567244062349447
2.7010450174169574,0.05312021186924445
2.7020450340839015,0.11314130136509147
2.703045050750846,0.08213765617499358
2.7040450674177907,0.05098663688175822
2.705045084084735,0.04056145920712019
2.7060451007516795,0.10862209652523395
2.707045117418624,0.12372492701607733
2.7080451340855682,0.06965126586020624
2.709045150752513,0.08690375671475717
2.710045167419457,0.12109724818758089
2.7110451840864016,0.04928551514957743
2.712045200753346,0.06107295087196437
2.7130452174202904,0.08604051555519837
2.714045234087235,0.048285308617766164
2.7150452507541796,0.06855992207882855
2.7160452674211237,0.032217586563927904
2.7170452840880683,0.10569160012862175
2.718045300755013,0.10070145500405873
2.719045317421957,0.1300934983518577
2.7200453340889017,0.07850523456475468
2.7210453507558463,0.07698318367411425
2.7220453674227905,0.08049994203404146
2.723045384089735,0.09407747944647998
2.7240454007566797,0.0611021733570446
2.725045417423624,0.1486300637159002
2.7260454340905684,0.08021477920589992
2.727045450757513,0.09902627674961599
2.728045467424457,0.08523991371238805
2.729045484091402,0.08737637142123246
2.7300455007583464,0.07443844395459204
2.7310455174252906,0.04237917235182457
2.732045534092235,0.08770481183207945
2.7330455507591798,0.1173563922863223
2.734045567426124,0.10125884756617642
2.7350455840930685,0.050841821809193014
2.7360456007600127,0.0538759548623883
2.7370456174269573,0.04442350208761266
2.738045634093902,0.0923199581457827
2.739045650760846,0.12471326289998913
2.7400456674277907,0.09450714631216287
2.7410456840947353,0.10493859080606205
2.7420457007616794,0.01857756312974719
2.743045717428624,0.012503868091341255
2.7440457340955686,0.05711399214830468
2.745045750762513,0.08014952202107134
2.7460457674294574,0.03800142115792826
2.747045784096402,0.11066199006213413
2.748045800763346,0.05196463920503228
2.7490458174302908,0.04302265937052606
2.7500458340972354,0.12806798488676308
2.7510458507641795,0.10713077652647437
2.752045867431124,0.10076320763390054
2.7530458840980687,0.06851142300994872
2.754045900765013,0.06727830574942492
2.7550459174319575,0.072573824226102
2.756045934098902,0.05340026840150585
2.7570459507658462,0.07144750840259825
2.758045967432791,0.0715892458793288
2.7590459840997354,0.053994197312657526
2.7600460007666796,0.0568898781430216
2.761046017433624,0.048457417474175375
2.7620460341005684,0.03020793658760887
2.763046050767513,0.0764201165878667
2.7640460674344576,0.052185404833344815
2.7650460841014017,0.06579573640296825
2.7660461007683463,0.07235508689849812
2.767046117435291,0.10060985955071775
2.768046134102235,0.11812011829562727
2.7690461507691797,0.04699052684967875
2.7700461674361243,0.1383815313335949
2.7710461841030685,0.12501310503531884
2.772046200770013,0.10245582885500101
2.7730462174369577,0.10612564356222841
2.774046234103902,0.024829668888800786
2.7750462507708464,0.02155814766370581
2.776046267437791,0.09391945910427679
2.777046284104735,0.11099586704797676
2.77804630077168,0.11346557673446589
2.7790463174386244,0.09659826361897593
2.7800463341055686,0.04135885015197302
2.781046350772513,0.10795820610526191
2.7820463674394578,0.1074215760946362
2.783046384106402,0.05472941178634946
2.7840464007733465,0.1061749282136341
2.7850464174402907,0.04141105695866466
2.7860464341072353,0.043044664999017414
2.78704645077418,0.05607503695468087
2.788046467441124,0.04793829026213511
2.7890464841080687,0.06521540749038951
2.7900465007750133,0.05757320930025587
2.7910465174419574,0.06833184632230432
2.792046534108902,0.0556468458116918
2.7930465507758466,0.10207926459090672
2.794046567442791,0.07349172987526587
2.7950465841097354,0.07577376951615458
2.79604660077668,0.12492005513830086
2.797046617443624,0.03983775627375633
2.7980466341105688,0.06502047186367804
2.7990466507775134,0.07429036238323937
2.8000466674444575,0.040084385875460045
2.801046684111402,0.08248709901656671
2.8020467007783467,0.03108246517359902
2.803046717445291,0.047162959688743455
2.8040467341122355,0.015255506665069335
2.80504675077918,0.0745711368790236
2.8060467674461242,0.05217980115625813
2.807046784113069,0.04467663788579123
2.8080468007800135,0.058692996067640044
2.8090468174469576,0.05131157709387636
2.810046834113902,0.12996406587771248
2.8110468507808464,0.03620216230213879
2.812046867447791,0.11477790566022521
2.8130468841147356,0.07478041770218836
2.8140469007816797,0.09135837237059483
2.8150469174486243,0.06368479402659585
2.816046934115569,0.08620732371584251
2.817046950782513,0.12069070233170773
2.8180469674494577,0.07284885675731632
2.8190469841164023,0.08711610637480481
2.8200470007833465,0.09559734139489107
2.821047017450291,0.07500471184892969
2.8220470341172357,0.055156592989280454
2.82304705078418,0.11700619532061482
2.8240470674511244,0.14336595256226822
2.825047084118069,0.12681433313554105
2.826047100785013,0.04829423259333553
2.827047117451958,0.02587951349532954
2.8280471341189024,0.10582597447073012
2.8290471507858466,0.13751135785469018
2.830047167452791,0.05756638960852
2.8310471841197358,0.08144893614808194
2.83204720078668,0.09579214679577787
2.8330472174536245,0.10166438291537018
2.834047234120569,0.13569254920914037
2.8350472507875133,0.04559105410471469
2.836047267454458,0.03793177390853654
2.837047284121402,0.11351923618606677
2.8380473007883467,0.04695504290612308
2.8390473174552913,0.04107271982887704
2.8400473341222354,0.04759779485667211
2.84104735078918,0.0910531587595766
2.8420473674561246,0.06549675933649275
2.843047384123069,0.10958391997568484
2.8440474007900134,0.047750197901083244
2.845047417456958,0.04364054077930746
2.846047434123902,0.06739960077250298
2.8470474507908468,0.09871632958821322
2.8480474674577914,0.06956184357627725
2.8490474841247355,0.06287489918059863
2.85004750079168,0.059750475256054654
2.8510475174586247,0.07861842705330985
2.852047534125569,0.07469111433627164
2.8530475507925135,0.09274337051885102
2.854047567459458,0.12575099866234052
2.8550475841264022,0.03377753857465396
2.856047600793347,0.11182882129520146
2.8570476174602915,0.08857502207766671
2.8580476341272356,0.08010362823601049
2.85904765079418,0.12102927790023635
2.8600476674611244,0.06656362648733977
2.861047684128069,0.0716073503839677
2.8620477007950136,0.08096819880699854
2.8630477174619577,0.10522325171985566
2.8640477341289023,0.022049090221610546
2.865047750795847,0.12762762498744096
2.866047767462791,0.070401431006249
2.8670477841297357,0.0837581759718666
2.8680478007966803,0.09643760972913601
2.8690478174636245,0.08977180005158708
2.870047834130569,0.12419297231808339
2.8710478507975137,0.055717326897663115
2.872047867464458,0.047118515445563364
2.8730478841314024,0.08264452827146658
2.874047900798347,0.0777234987149491
2.875047917465291,0.04761906441532578
2.876047934132236,0.09587735602812762
2.8770479507991804,0.08011900300096851
2.8780479674661246,0.07821734279100992
2.879047984133069,0.07898094437824067
2.8800480008000138,0.08657296068445601
2.881048017466958,0.09441222259177634
2.8820480341339025,0.062101068613821336
2.883048050800847,0.09241115458813551
2.8840480674677913,0.08194718677609969
2.885048084134736,0.033989495419634544
2.88604810080168,0.0684361699309938
2.8870481174686247,0.031323389510050884
2.8880481341355693,0.06710708853921196
2.8890481508025134,0.06446295154160167
2.890048167469458,0.10181705217907161
2.8910481841364026,0.10183347827973785
2.892048200803347,0.14866645566500458
2.8930482174702914,0.11851505444586155
2.894048234137236,0.04616766557580615
2.89504825080418,0.07532119758136033
2.8960482674711248,0.12560468979065773
2.8970482841380694,0.14072368461579357
2.8980483008050135,0.0485599590538356
2.899048317471958,0.07017695800168203
2.9000483341389027,0.08591671296194212
2.901048350805847,0.09657802317805647
2.9020483674727915,0.04917171440859634
2.903048384139736,0.10822288650976693
2.9040484008066803,0.08965688848515713
2.905048417473625,0.11068992778702187
2.9060484341405695,0.06919706582694592
2.9070484508075136,0.08645985460925551
2.908048467474458,0.09429100476397201
2.909048484141403,0.09637214284930544
2.910048500808347,0.11938214400605345
2.9110485174752916,0.1326882067828403
2.9120485341422357,0.1164891293806208
2.9130485508091803,0.11054358522609221
2.914048567476125,0.13328079861413036
2.915048584143069,0.0852985875584227
2.9160486008100137,0.10384811259422004
2.9170486174769583,0.03629103695038358
2.9180486341439025,0.0271593522194732
2.919048650810847,0.03950389430728217
2.9200486674777917,0.031557773322080075
2.921048684144736,0.06038803424592006
2.9220487008116804,0.04472693148558163
2.923048717478625,0.14772492395149636
2.924048734145569,0.11514557479912482
2.925048750812514,0.13543662510221702
2.9260487674794584,0.06311155491658406
2.9270487841464026,0.09614778434162985
2.928048800813347,0.12958836136503737
2.9290488174802918,0.11611811230058787
2.930048834147236,0.02687930365142216
2.9310488508141805,0.10363067349101177
2.932048867481125,0.10649531763865423
2.9330488841480693,0.12330933375192416
2.934048900815014,0.03382449187702178
2.935048917481958,0.10888483417037423
2.9360489341489027,0.08465856901560759
2.9370489508158473,0.06075914470704649
2.9380489674827914,0.02398741928968666
2.939048984149736,0.08241083242232805
2.9400490008166806,0.07809546875340058
2.941049017483625,0.02750421679513209
2.9420490341505694,0.09691370456236797
2.943049050817514,0.043230673756942506
2.944049067484458,0.10789778676063676
2.9450490841514028,0.0782575692937489
2.9460491008183474,0.05244711177871377
2.9470491174852915,0.028888862417087824
2.948049134152236,0.02643582801182029
2.9490491508191807,0.05974602509391604
2.950049167486125,0.11073954544344079
2.9510491841530695,0.059239321593077966
2.952049200820014,0.12002292699547562
2.9530492174869583,0.0780115122277103
2.954049234153903,0.06829355464086402
2.9550492508208475,0.08377380146491553
2.9560492674877916,0.036685975210214675
2.9570492841547362,0.114931473195806
2.958049300821681,0.11981913272796907
2.959049317488625,0.08685768672914396
2.9600493341555696,0.12719721644601514
2.9610493508225137,0.09917680340679341
2.9620493674894584,0.0940957452502696
2.963049384156403,0.031881059566991304
2.964049400823347,0.06859172747065401
2.9650494174902917,0.09960596847020226
2.9660494341572363,0.04031610397273873
2.9670494508241805,0.11490349454624467
2.968049467491125,0.09470941038660698
2.9690494841580697,0.11398526795777036
2.970049500825014,0.12811826231550252
2.9710495174919584,0.07509281308814975
2.972049534158903,0.10266130329874357
2.973049550825847,0.11734106531234348
2.974049567492792,0.08206912029460553
2.9750495841597364,0.11745822719783612
2.9760496008266806,0.09402889871816127
2.977049617493625,0.03448754631428934
2.97804963416057,0.12381118319698116
2.979049650827514,0.03711588035479033
2.9800496674944585,0.06381308325675662
2.981049684161403,0.10736744557677881
2.9820497008283473,0.0935214273309511
2.983049717495292,0.09755738062395308
2.9840497341622365,0.053462102795301496
2.9850497508291807,0.05705920005073963
2.9860497674961253,0.10550041246529739
2.9870497841630694,0.11278680543252892
2.988049800830014,0.05201989326800706
2.9890498174969586,0.08885327502005652
2.990049834163903,0.05072771757308485
2.9910498508308474,0.08334244926331179
2.992049867497792,0.06600268466910289
2.993049884164736,0.07164741310895242
2.9940499008316808,0.026019451210457033
2.9950499174986254,0.09971377516937145
2.9960499341655695,0.07324356923236393
2.997049950832514,0.1091280066439528
2.9980499674994587,0.07183248587967671
2.999049984166403,0.027851776437986545
3.0000500008333475,0.041535880023782716
3.001050017500292,0.0631655176943652
3.0020500341672363,0.10237306900826329
3.003050050834181,0.07674172028364643
3.0040500675011255,0.04389286507673575
3.0050500841680696,0.06783736733262455
3.0060501008350142,0.07062038064357318
3.007050117501959,0.040600065558055044
3.008050134168903,0.09175449384494674
3.0090501508358476,0.03290160151308995
3.0100501675027918,0.09708034686295665
