Time	Amplitude
0.0	1.074877309190897
0.0010000166669444492	1.0703052172620715
0.0020000333338888983	1.0597621963855377
0.0030000500008333475	1.043219381630614
0.004000066667777797	1.0207916561383996
0.005000083334722245	0.9929384919521099
0.006000100001666695	0.9601224908833733
0.0070001166686111446	0.922807189034097
0.008000133335555593	0.8814570567964668
0.009000150002500042	0.8365374988529464
0.01000016666944449	0.7885148541762783
0.011000183336388941	0.7378472654475506
0.01200020000333339	0.6849571225618456
0.013000216670277839	0.630258536562692
0.014000233337222289	0.5741665527838683
0.015000250004166738	0.5170971508494283
0.016000266671111187	0.4594672446737066
0.017000283338055637	0.4016946824613146
0.018000300005000084	0.344198246707143
0.019000316671944534	0.28739765419636065
0.02000033333888898	0.23171355600441393
0.021000350005833432	0.17757380622149715
0.022000366672777882	0.12537490714168165
0.02300038333972233	0.07530845425835446
0.02400040000666678	0.027524814579888916
0.02500041667361123	-0.01784073366046529
0.026000433340555677	-0.06066858631405469
0.027000450007500128	-0.10085481331682232
0.028000466674444578	-0.13831115868930846
0.029000483341389025	-0.17296504053664927
0.030000500008333476	-0.2047595510485776
0.031000516675277923	-0.23365676943422614
0.03200053334222237	-0.25964788087040064
0.033000550009166824	-0.28274314823576735
0.034000566676111274	-0.30296850849389567
0.03500058334305572	-0.32036557269295113
0.03600060001000017	-0.334991625965696
0.03700061667694462	-0.3469196275294891
0.03800063334388907	-0.356238210686286
0.03900065001083352	-0.3630516828226385
0.04000066667777796	-0.367480025409695
0.04100068334472241	-0.36965471067400085
0.042000700011666864	-0.369705847625504
0.043000716678611314	-0.3677748826618592
0.044000733345555765	-0.36401893626439735
0.045000750012500215	-0.3586108029990456
0.04600076667944466	-0.35173895151632845
0.04700078334638911	-0.34360752455136595
0.04800080001333356	-0.3344326017454595
0.04900081668027801	-0.32434210453444323
0.05000083334722246	-0.31345108994997223
0.051000850014166904	-0.301895755840293
0.052000866681111355	-0.289826441694547
0.053000883348055805	-0.27739053098567956
0.054000900015000255	-0.26472657770027347
0.055000916681944706	-0.2519643063361258
0.056000933348889156	-0.23922461190224759
0.0570009500158336	-0.22661955991886337
0.05800096668277805	-0.21425238641741176
0.0590009833497225	-0.20221749794054525
0.06000100001666695	-0.1906004715421301
0.0610010166836114	-0.17947598665107573
0.062001033350555845	-0.16890139421237085
0.0630010500175003	-0.1589230327797006
0.06400106668444475	-0.1495784114164139
0.0650010833513892	-0.14089620969707375
0.06600110001833365	-0.13289627770745682
0.0670011166852781	-0.12558963604455373
0.06800113335222255	-0.11897847581656891
0.069001150019167	-0.11305615864292079
0.07000116668611144	-0.10780721665424163
0.07100118335305589	-0.10320552027857416
0.07200120002000034	-0.0992085470115026
0.07300121668694479	-0.0957629934866974
0.07400123335388924	-0.09280672684685264
0.07500125002083369	-0.09026878474587623
0.07600126668777814	-0.08806937534888994
0.07700128335472259	-0.08611987733222923
0.07800130002166704	-0.08432376204492387
0.07900131668861149	-0.0826805428266655
0.08000133335555593	-0.08121243234808971
0.08100135002250038	-0.07989406250990504
0.08200136668944483	-0.07869449920101158
0.08300138335638928	-0.07758185536867301
0.08400140002333373	-0.07652490478878597
0.08500141669027818	-0.0754930820685722
0.08600143335722263	-0.07445648264657817
0.08700145002416708	-0.07338586279267538
0.08800146669111153	-0.07225263960806022
0.08900148335805598	-0.07102889102525392
0.09000150002500043	-0.06968735580810276
0.09100151669194487	-0.06821100266258029
0.09200153335888932	-0.06662332002505171
0.09300155002583377	-0.06495883372152207
0.09400156669277822	-0.06325273043385748
0.09500158335972267	-0.06154085767524866
0.09600160002666712	-0.05985972379021155
0.09700161669361157	-0.05824649795458697
0.09800163336055602	-0.056739010175540436
0.09900165002750047	-0.05537575129156252
0.10000166669444492	-0.05419587297246892
0.10100168336138937	-0.053223566588383495
0.10200170002833381	-0.05241827968795338
0.10300171669527826	-0.051722999939192556
0.10400173336222271	-0.05108137564850472
0.10500175002916716	-0.05043771595361877
0.10600176669611161	-0.049736990823588206
0.10700178336305606	-0.04892483105879164
0.10800180003000051	-0.047947528290932635
0.10900181669694496	-0.046752034983039564
0.11000183336388941	-0.045285964429465794
0.11100185003083386	-0.04351534926911204
0.11200186669777831	-0.0414815228911823
0.11300188336472275	-0.0392377229217773
0.1140019000316672	-0.036831652808416514
0.11500191669861165	-0.03431883336959635
0.1160019333655561	-0.031754848489468954
0.11700195003250055	-0.029195324252998808
0.118001966699445	-0.026695928945962573
0.11900198336638945	-0.024312373054949637
0.1200020000333339	-0.022100409267361204
0.12100201670027835	-0.020099788411748958
0.1220020333672228	-0.018282565186790962
0.12300205003416724	-0.01660296250850641
0.12400206670111169	-0.015015245394866835
0.12500208336805615	-0.0134737210646564
0.1260021000350006	-0.011932738937471373
0.12700211670194506	-0.010346690633720434
0.1280021333688895	-0.008670009974624717
0.12900215003583393	-0.00685717298221737
0.1300021667027784	-0.004862697879344102
0.13100218336972283	-0.0026530676994016974
0.1320022000366673	-0.0002453723723991625
0.13300221670361173	0.0023298534486135714
0.1340022333705562	0.005042032815942151
0.13500225003750063	0.007860546581079549
0.1360022667044451	0.010754733394706562
0.13700228337138953	0.013693889706691637
0.138002300038334	0.01664726976609115
0.13900231670527843	0.019584085621148654
0.14000233337222287	0.02247350711929577
0.14100235003916733	0.025292121330791117
0.14200236670611177	0.028048251917517388
0.14300238337305624	0.030758641471676722
0.14400240004000067	0.03343999045831993
0.14500241670694514	0.036108957141685175
0.14600243337388957	0.03878215758519864
0.14700245004083404	0.041476165651474044
0.14800246670777847	0.044207513002312744
0.14900248337472294	0.04699268909870384
0.15000250004166737	0.049848141200824175
0.1510025167086118	0.05278876459876665
0.15200253337555628	0.0558229513934125
0.1530025500425007	0.058957323493765194
0.15400256670944518	0.062198460589593926
0.1550025833763896	0.06555290016985585
0.15600260004333408	0.0690271375226957
0.15700261671027851	0.07262762573544566
0.15800263337722298	0.076360775694626
0.15900265004416742	0.08023295608594433
0.16000266671111185	0.08425049339429623
0.16100268337805632	0.08841376340196598
0.16200270004500075	0.0926977003615142
0.16300271671194522	0.09707037268882963
0.16400273337888965	0.1015076152151558
0.16500275004583412	0.10598783497523337
0.16600276671277855	0.11047644716807752
0.16700278337972302	0.11493875426025196
0.16800280004666746	0.11934008580900779
0.16900281671361192	0.12364579846228431
0.17000283338055636	0.12782127595870788
0.1710028500475008	0.13184439623975544
0.17200286671444526	0.13574689967899375
0.1730028833813897	0.1395750819367062
0.17400290004833416	0.14337526598735673
0.1750029167152786	0.14719380189609677
0.17600293338222306	0.15107706681876582
0.1770029500491675	0.15507146500189095
0.17800296671611196	0.15922342778268728
0.1790029833830564	0.16357941358905745
0.18000300005000086	0.1681859079395918
0.1810030167169453	0.1730742804637619
0.18200303338388973	0.17821024231634688
0.1830030500508342	0.18354172582736505
0.18400306671777863	0.1890166900937889
0.1850030833847231	0.1945831213032793
0.18600310005166754	0.20018903273418429
0.187003116718612	0.2057824647555402
0.18800313338555644	0.21131148482707054
0.1890031500525009	0.21672418749918707
0.19000316671944534	0.22196869441298892
0.1910031833863898	0.22700539831671884
0.19200320005333424	0.23184806970639338
0.19300321672027868	0.2365250334312465
0.19400323338722314	0.24106464174048134
0.19500325005416758	0.2454952739739884
0.19600326672111204	0.24984533656234667
0.19700328338805648	0.254143263026822
0.19800330005500094	0.2584175139793688
0.19900331672194538	0.26269657712262867
0.20000333338888984	0.2670089672499313
0.20100335005583428	0.271375097430684
0.20200336672277874	0.27577980016158316
0.20300338338972318	0.2801981819355971
0.20400340005666762	0.2846053761121185
0.20500341672361208	0.2889765431412277
0.20600343339055652	0.29328687056369235
0.20700345005750098	0.2975115730109691
0.20800346672444542	0.3016258922052007
0.20900348339138988	0.3056050969592187
0.21000350005833432	0.3094244831765427
0.21100351672527878	0.3130661304227005
0.21200353339222322	0.3165418522759052
0.21300355005916768	0.3198716514575513
0.21400356672611212	0.3230755580123066
0.21500358339305656	0.3261736290755267
0.21600360006000102	0.32918594887325553
0.21700361672694546	0.33213262872222393
0.21800363339388992	0.33503380702985097
0.21900365006083436	0.33790964929424366
0.22000366672777882	0.34078034810419633
0.22100368339472326	0.34366076036521975
0.22200370006166772	0.3465420847693153
0.22300371672861216	0.34940901024617144
0.22400373339555663	0.3522462526029203
0.22500375006250106	0.3550385547373825
0.2260037667294455	0.35777068663806594
0.22700378339638996	0.36042744538416654
0.2280038000633344	0.36299365514556764
0.22900381673027886	0.36545416718284046
0.2300038333972233	0.3677938598472442
0.23100385006416777	0.3699998045220144
0.2320038667311122	0.3720687090457016
0.23300388339805667	0.3739999723330967
0.2340039000650011	0.3757930204885502
0.23500391673194554	0.3774473067071003
0.23600393339889	0.3789623112744724
0.23700395006583444	0.38033754156708005
0.2380039667327789	0.3815725320520253
0.23900398339972334	0.38266684428709635
0.2400040000666678	0.38362006692077083
0.24100401673361224	0.3844320078708851
0.2420040334005567	0.3851033586157542
0.24300405006750114	0.3856350762286068
0.2440040667344456	0.38602814488337306
0.24500408340139004	0.3862835758446707
0.24600410006833448	0.38640240746780585
0.24700411673527894	0.3863857051987715
0.24800413340222338	0.38623456157424924
0.24900415006916785	0.3859500962216081
0.2500041667361123	0.38553345585890464
0.25100418340305675	0.38498447689490606
0.2520042000700012	0.38429334419090644
0.2530042167369456	0.38344125024269293
0.2540042334038901	0.382424269859745
0.25500425007083455	0.38123976874878707
0.256004266737779	0.37988508090623313
0.2570042834047234	0.37835750861818673
0.25800430007166786	0.37665432246044056
0.25900431673861235	0.374772761298477
0.2600043334055568	0.3727100322874675
0.2610043500725012	0.3704650578635658
0.26200436673944566	0.3680445850235339
0.26300438340639015	0.36545753651085305
0.2640044000733346	0.36271280347552026
0.265004416740279	0.359819245357222
0.26600443340722346	0.3567856898853339
0.2670044500741679	0.3536209330789215
0.2680044667411124	0.35033373924673905
0.2690044834080568	0.3469328409872309
0.27000450007500126	0.34342693918853046
0.2710045167419457	0.33982495146847613
0.2720045334088902	0.33613688603021874
0.27300455007583463	0.33237303612488195
0.27400456674277907	0.3285436633119715
0.2750045834097235	0.3246589974406826
0.276004600076668	0.3207292366498998
0.27700461674361243	0.31676454736819726
0.27800463341055687	0.3127750643138384
0.2790046500775013	0.30877089049477646
0.28000466674444574	0.30476209720865327
0.28100468341139023	0.3007577878688507
0.28200470007833467	0.2967627860005409
0.2830047167452791	0.29278067902723387
0.28400473341222354	0.2888150225832002
0.28500475007916803	0.28486934059240004
0.28600476674611247	0.28094712526848337
0.2870047834130569	0.27705183711478876
0.28800480008000134	0.273186904924345
0.2890048167469458	0.26935572577987016
0.2900048334138903	0.26556166505377116
0.2910048500808347	0.2618029379825377
0.29200486674777915	0.25805439655342544
0.2930048834147236	0.25428421670349627
0.2940049000816681	0.2504605421778013
0.2950049167486125	0.24655148501108168
0.29600493341555695	0.2425251255277676
0.2970049500825014	0.23834951234197885
0.2980049667494459	0.23399266235752447
0.2990049834163903	0.22942256076790332
0.30000500008333475	0.22460716105630316
0.3010050167502792	0.21952617028839522
0.3020050334172236	0.21421322173942833
0.3030050500841681	0.20871734610853818
0.30400506675111255	0.20308754326682177
0.305005083418057	0.1973727813750659
0.3060051000850014	0.1916219968837463
0.3070051167519459	0.18588409453302857
0.30800513341889035	0.1802079473527672
0.3090051500858348	0.17464239666250703
0.3100051667527792	0.1692362520714814
0.31100518341972366	0.16402860308444256
0.31200520008666816	0.15901394373636413
0.3130052167536126	0.15417393148267752
0.31400523342055703	0.14949019094421975
0.31500525008750146	0.14494431503151606
0.31600526675444596	0.14051786494478166
0.3170052834213904	0.13619237017392138
0.31800530008833483	0.13194932849852928
0.31900531675527927	0.1277702059878886
0.3200053334222237	0.1236364370009726
0.3210053500891682	0.11953077578010415
0.32200536675611263	0.11544218994271736
0.32300538342305707	0.11136141788660094
0.3240054000900015	0.10727916647256891
0.325005416756946	0.10318611085112385
0.32600543342389043	0.09907289446245833
0.32700545009083487	0.09493012903645456
0.3280054667577793	0.09074839459268347
0.3290054834247238	0.08651823944040607
0.33000550009166824	0.0822301801785722
0.3310055167586127	0.07788032516653813
0.3320055334255571	0.07349085218733489
0.33300555009250155	0.06909147450236645
0.33400556675944604	0.06471187445740662
0.3350055834263905	0.06038170268791835
0.3360056000933349	0.056130578119054024
0.33700561676027935	0.05198808796565542
0.33800563342722384	0.04798378773225381
0.3390056500941683	0.04414720121306994
0.3400056667611127	0.04050782049201354
0.34100568342805715	0.037085760052524806
0.3420057000950016	0.03385752752551349
0.3430057167619461	0.030786909061297336
0.3440057334288905	0.027837657648569283
0.34500575009583495	0.024973494565712375
0.3460057667627794	0.022158109380798166
0.3470057834297239	0.01935515995158839
0.3480058000966683	0.01652827242553385
0.34900581676361275	0.013641041239774849
0.3500058334305572	0.010657029121141078
0.3510058500975017	0.007552457693703411
0.3520058667644461	0.004362753770808116
0.35300588343139055	0.0011393193857910286
0.354005900098335	-0.0020667451815258734
0.35500591676527943	-0.005204299985169084
0.3560059334322239	-0.008222197280041645
0.35700595009916836	-0.011069281521922667
0.3580059667661128	-0.01369438936746753
0.35900598343305723	-0.016046349674208003
0.3600060001000017	-0.018073983500552147
0.36100601676694616	-0.019743460659715897
0.3620060334338906	-0.021102603210298245
0.36300605010083503	-0.022223219356804904
0.36400606676777947	-0.023177112734606146
0.36500608343472396	-0.024036079179948516
0.3660061001016684	-0.024871906729954922
0.36700611676861283	-0.025756375622624256
0.36800613343555727	-0.026761258296831923
0.36900615010250176	-0.02795831939232951
0.3700061667694462	-0.029419315749744837
0.37100618343639064	-0.0311966744693241
0.37200620010333507	-0.03325149574333353
0.37300621677027956	-0.03551791996345061
0.374006233437224	-0.037930075799812155
0.37500625010416844	-0.040422084123431234
0.3760062667711129	-0.04292805800619699
0.3770062834380573	-0.04538210272087518
0.3780063001050018	-0.04771831574110762
0.37900631677194624	-0.049870786741412515
0.3800063334388907	-0.05177359759718415
0.3810063501058351	-0.05337521830632994
0.3820063667727796	-0.05469245748275896
0.38300638343972404	-0.055762377906204856
0.3840064001066685	-0.0566220377382451
0.3850064167736129	-0.057308487341333585
0.38600643344055735	-0.057858769278800286
0.38700645010750184	-0.05830991831485164
0.3880064667744463	-0.05869896141457016
0.3890064834413907	-0.05906291774391485
0.39000650010833515	-0.059438798669720704
0.39100651677527964	-0.059857529429029534
0.3920065334422241	-0.06032103890763086
0.3930065501091685	-0.060822615863951573
0.39400656677611295	-0.06135553979840786
0.3950065834430574	-0.06191308241229203
0.3960066001100019	-0.06248850760777285
0.3970066167769463	-0.0630750714878953
0.39800663344389076	-0.06366602235658077
0.3990066501108352	-0.06425460071862651
0.4000066667777797	-0.06483403927970657
0.4010066834447241	-0.0653975988541808
0.40200670011166856	-0.06593868279267459
0.403006716778613	-0.06645070571523383
0.4040067334455575	-0.06692707371931648
0.4050067501125019	-0.06736118514191745
0.40600676677944636	-0.06774643052090792
0.4070067834463908	-0.06807619259503533
0.40800680011333523	-0.06834384630392358
0.4090068167802797	-0.06854275878807256
0.41000683344722416	-0.06866628938885856
0.4110068501141686	-0.06871193258185383
0.41200686678111303	-0.06869711314524238
0.4130068834480575	-0.06864523843009283
0.41400690011500196	-0.06857970915478837
0.4150069167819464	-0.06852391823858871
0.41600693344889084	-0.06850125080162967
0.4170069501158353	-0.06853508416492335
0.41800696678277977	-0.0686487878503582
0.4190069834497242	-0.0688657235806989
0.42000700011666864	-0.06920924527958634
0.4210070167836131	-0.06969478246787653
0.42200703345055757	-0.07029948474691051
0.423007050117502	-0.07098894382685092
0.42400706678444644	-0.07172874121119648
0.4250070834513909	-0.07248445060432226
0.42600710011833537	-0.07322163791147973
0.4270071167852798	-0.0739058612387963
0.42800713345222424	-0.07450267089327588
0.4290071501191687	-0.07497760938279865
0.4300071667861131	-0.07529621141612096
0.4310071834530576	-0.07543230638622167
0.43200720012000204	-0.07540003584102561
0.4330072167869465	-0.07522575588650923
0.4340072334538909	-0.07493581755215094
0.4350072501208354	-0.07455656406830516
0.43600726678777985	-0.07411433086620291
0.4370072834547243	-0.07363544557795117
0.4380073001216687	-0.07314622803653334
0.43900731678861316	-0.07267299027580905
0.44000733345555765	-0.07224203653051438
0.4410073501225021	-0.07187583802912698
0.4420073667894465	-0.07157819715345042
0.44300738345639096	-0.07134722647536154
0.44400740012333545	-0.07118102941716314
0.4450074167902799	-0.07107770160203421
0.4460074334572243	-0.07103533085403
0.44700745012416876	-0.07105199719808208
0.44800746679111325	-0.07112577285999813
0.4490074834580577	-0.07125472226646243
0.4500075001250021	-0.07143690204503515
0.45100751679194656	-0.07166837994410337
0.452007533458891	-0.07193524258923582
0.4530075501258355	-0.07221970834494555
0.4540075667927799	-0.072504888227654
0.45500758345972436	-0.07277400582434732
0.4560076001266688	-0.07301028174316855
0.4570076167936133	-0.07319693361341828
0.45800763346055773	-0.07331717608555435
0.45900765012750216	-0.07335422083119163
0.4600076667944466	-0.0732912765431025
0.46100768346139104	-0.07311646285199795
0.46200770012833553	-0.07284208713959271
0.46300771679527997	-0.07248788527248332
0.4640077334622244	-0.07207359213994115
0.46500775012916884	-0.07161893965239434
0.46600776679611333	-0.0711436567414285
0.46700778346305777	-0.07066746935978625
0.4680078001300022	-0.07021010048136789
0.46900781679694664	-0.06979127010123055
0.4700078334638911	-0.06943069523558885
0.47100785013083557	-0.06914370875225152
0.47200786679778	-0.06892397436096528
0.47300788346472444	-0.06875846726081128
0.4740079001316689	-0.06863415775934546
0.47500791679861337	-0.06853801318528098
0.4760079334655578	-0.0684569978884883
0.47700795013250225	-0.06837807323999497
0.4780079667994467	-0.06828819763198613
0.4790079834663912	-0.06817432647780376
0.4800080001333356	-0.06802341221194742
0.48100801680028005	-0.06782586503716401
0.4820080334672245	-0.06758928447574677
0.4830080501341689	-0.06732659569215894
0.4840080668011134	-0.0670507224891976
0.48500808346805785	-0.06677458569081682
0.4860081001350023	-0.06651110314212816
