Time	Amplitude
0.0	1.0831238143106048
0.0010000166669444492	1.077528382297828
0.0020000333338888983	1.0639781168329803
0.0030000500008333475	1.0424646871398495
0.004000066667777797	1.0134417406493974
0.005000083334722245	0.9774432507447854
0.006000100001666695	0.9350325823890958
0.0070001166686111446	0.8868024921253306
0.008000133335555593	0.8333751280764129
0.009000150002500042	0.7754020299451859
0.01000016666944449	0.7135641290144135
0.011000183336388941	0.6485892646650806
0.01200020000333339	0.5813050499923197
0.013000216670277839	0.5125861645761003
0.014000233337222289	0.4433366795763705
0.015000250004166738	0.37448959464221254
0.016000266671111187	0.3068791717303094
0.017000283338055637	0.24104839601087746
0.018000300005000084	0.1774624462396358
0.019000316671944534	0.11654437215341407
0.02000033333888898	0.05867509447015267
0.021000350005833432	0.0041856084031181105
0.022000366672777882	-0.04666668778546539
0.02300038333972233	-0.09367446296883253
0.02400040000666678	-0.13667251503931926
0.02500041667361123	-0.17553777090815084
0.026000433340555677	-0.21018928650544183
0.027000450007500128	-0.2405882467801956
0.028000466674444578	-0.26673796570030545
0.029000483341389025	-0.288683886252553
0.030000500008333476	-0.30651358044260946
0.031000516675277923	-0.3203581683429519
0.03200053334222237	-0.33039665239864197
0.033000550009166824	-0.33685162196407437
0.034000566676111274	-0.3399877954126631
0.03500058334305572	-0.34011202013671177
0.03600060001000017	-0.3375711352473314
0.03700061667694462	-0.3324935436969039
0.03800063334388907	-0.3250932105768429
0.03900065001083352	-0.31574269709510056
0.04000066667777796	-0.30479326043607224
0.04100068334472241	-0.2925710236685452
0.042000700011666864	-0.27936520715336216
0.043000716678611314	-0.26543975671831954
0.044000733345555765	-0.2510373141668142
0.045000750012500215	-0.23637921727868533
0.04600076667944466	-0.2216654998102162
0.04700078334638911	-0.2070748914941326
0.04800080001333356	-0.19276481803960357
0.04900081668027801	-0.17887140113224131
0.05000083334722246	-0.16550945843410092
0.051000850014166904	-0.15277632901750732
0.052000866681111355	-0.14076369792828267
0.053000883348055805	-0.1295459477258395
0.054000900015000255	-0.11917615694768487
0.055000916681944706	-0.10968610010776891
0.056000933348889156	-0.10108624769648498
0.0570009500158336	-0.09336576618066951
0.05800096668277805	-0.08649251800360203
0.0590009833497225	-0.08041306158500477
0.06000100001666695	-0.07505265132104387
0.0610010166836114	-0.07031061394408547
0.062001033350555845	-0.06612102297130887
0.0630010500175003	-0.062432141355559086
0.06400106668444475	-0.05917350300080378
0.0650010833513892	-0.05627661519684484
0.06600110001833365	-0.053674958619319195
0.0670011166852781	-0.051303987329698264
0.06800113335222255	-0.049101128775288126
0.069001150019167	-0.04700578378922941
0.07000116668611144	-0.044959326590497624
0.07100118335305589	-0.04291258572411572
0.07200120002000034	-0.04084924470791703
0.07300121668694479	-0.03876292791403539
0.07400123335388924	-0.036649233109382263
0.07500125002083369	-0.034505731446704185
0.07600126668777814	-0.032331967464582036
0.07700128335472259	-0.030129459087431337
0.07800130002166704	-0.027901697625502465
0.07900131668861149	-0.02565414777488025
0.08000133335555593	-0.023394247617484317
0.08100135002250038	-0.02112855738282024
0.08200136668944483	-0.018853787568393926
0.08300138335638928	-0.016565557932198577
0.08400140002333373	-0.014261461612950742
0.08500141669027818	-0.011941065135201372
0.08600143335722263	-0.00960590840933644
0.08700145002416708	-0.007259504731576381
0.08800146669111153	-0.004907340783976374
0.08900148335805598	-0.002556876634426058
0.09000150002500043	-0.0002175457366499307
0.09100151669194487	0.002104000418224775
0.09200153335888932	0.004418944744897215
0.09300155002583377	0.006741653379917809
0.09400156669277822	0.009108439102869906
0.09500158335972267	0.011567724443100755
0.09600160002666712	0.01414747945525444
0.09700161669361157	0.01687553007842698
0.09800163336055602	0.019779569783236788
0.09900165002750047	0.02288715957182573
0.10000166669444492	0.026225727977858115
0.10100168336138937	0.029811903762471826
0.10200170002833381	0.03361755230219808
0.10300171669527826	0.03760273639294393
0.10400173336222271	0.04172738633359537
0.10500175002916716	0.045951299954561244
0.10600176669611161	0.05023414261777338
0.10700178336305606	0.05453544721668631
0.10800180003000051	0.05881461417627755
0.10900181669694496	0.0630309114530473
0.11000183336388941	0.06714347453501883
0.11100185003083386	0.0711270911168653
0.11200186669777831	0.0750227602035568
0.11300188336472275	0.07888877580542902
0.1140019000316672	0.08278329953891422
0.11500191669861165	0.08676436055196715
0.1160019333655561	0.09088985552406621
0.11700195003250055	0.09521754866621188
0.118001966699445	0.0998050717209278
0.11900198336638945	0.10470992396226045
0.1200020000333339	0.1099894721957794
0.12100201670027835	0.1156785605525777
0.1220020333672228	0.12171736881181969
0.12300205003416724	0.1280210003373127
0.12400206670111169	0.13450442588642375
0.12500208336805615	0.14108248374804308
0.1260021000350006	0.1476698797425834
0.12700211670194506	0.15418118722198076
0.1280021333688895	0.1605308470696935
0.12900215003583393	0.16663316770070322
0.1300021667027784	0.1724023250615143
0.13100218336972283	0.1777772068584117
0.1320022000366673	0.18280193459311359
0.13300221670361173	0.1875484253556172
0.1340022333705562	0.1920884639629701
0.13500225003750063	0.19649832662619318
0.1360022667044451	0.20085656396133916
0.13700228337138953	0.2052323903561415
0.138002300038334	0.20969491539064974
0.13900231670527843	0.2143133344560597
0.14000233337222287	0.21915692875471302
0.14100235003916733	0.2242778997671558
0.14200236670611177	0.22965540582300148
0.14300238337305624	0.23524922041323995
0.14400240004000067	0.2410192026704992
0.14500241670694514	0.24692529753855355
0.14600243337388957	0.25292753577232446
0.14700245004083404	0.2589860339378785
0.14800246670777847	0.2650609944124287
0.14900248337472294	0.27111270538433446
0.15000250004166737	0.2771015408531014
0.1510025167086118	0.2829935319853581
0.15200253337555628	0.2887786381214252
0.1530025500425007	0.2944532810515931
0.15400256670944518	0.3000139684452782
0.1550025833763896	0.30545729378304326
0.15600260004333408	0.31077993635659706
0.15700261671027851	0.3159786612687944
0.15800263337722298	0.3210503194336366
0.15900265004416742	0.3259918475762713
0.16000266671111185	0.33080026823299197
0.16100268337805632	0.3354707863283849
0.16200270004500075	0.339990510208676
0.16300271671194522	0.3443444357981011
0.16400273337888965	0.3485176448037258
0.16500275004583412	0.35249530474376156
0.16600276671277855	0.3562626689475665
0.16700278337972302	0.3598050765556441
0.16800280004666746	0.363107952519645
0.16900281671361192	0.3661568076023658
0.17000283338055636	0.36893723837774867
0.1710028500475008	0.3714421272118389
0.17200286671444526	0.373695533157391
0.1730028833813897	0.37572999137217405
0.17400290004833416	0.37757812295417453
0.1750029167152786	0.379272634812525
0.17600293338222306	0.3808463196675044
0.1770029500491675	0.38233205605053855
0.17800296671611196	0.3837628083041978
0.1790029833830564	0.38517162658220017
0.18000300005000086	0.3865916468494097
0.1810030167169453	0.38804660977074407
0.18200303338388973	0.38951921569316705
0.1830030500508342	0.39098110238361194
0.18400306671777863	0.3924039932174667
0.1850030833847231	0.3937596973812665
0.18600310005166754	0.3950201098726911
0.187003116718612	0.396157211500568
0.18800313338555644	0.39713917378260366
0.1890031500525009	0.39791077120812635
0.19000316671944534	0.39844489750695566
0.1910031833863898	0.3987225473525618
0.19200320005333424	0.3987311215748361
0.19300321672027868	0.3984597431914768
0.19400323338722314	0.39789750475874996
0.19500325005416758	0.39703346833417397
0.19600326672111204	0.39585666547651993
0.19700328338805648	0.39435609724581183
0.19800330005500094	0.3925207342033256
0.19900331672194538	0.3903395164115907
0.20000333338888984	0.387801353434389
0.20100335005583428	0.3849050946302487
0.20200336672277874	0.3816932030956968
0.20300338338972318	0.3782200529507002
0.20400340005666762	0.374539988371249
0.20500341672361208	0.3707073230345855
0.20600343339055652	0.3667763401192057
0.20700345005750098	0.3628012923048575
0.20800346672444542	0.35883640177254184
0.20900348339138988	0.35493586020451195
0.21000350005833432	0.35115382878427387
0.21100351672527878	0.34752778753506164
0.21200353339222322	0.3440219772665251
0.21300355005916768	0.3405804940086763
0.21400356672611212	0.33714740271960253
0.21500358339305656	0.33366673785864454
0.21600360006000102	0.33008250338639533
0.21700361672694546	0.32633867276470035
0.21800363339388992	0.3223791889566581
0.21900365006083436	0.31814796442661974
0.22000366672777882	0.3135888811401887
0.22100368339472326	0.30866342279415304
0.22200370006166772	0.30341091734536796
0.22300371672861216	0.29789215472873476
0.22400373339555663	0.2921678950815305
0.22500375006250106	0.28629886804228516
0.2260037667294455	0.2803457727507809
0.22700378339638996	0.274369277848053
0.2280038000633344	0.26843002147638906
0.22900381673027886	0.26258861127932964
0.2300038333972233	0.25690562440166775
0.23100385006416777	0.2514253296817184
0.2320038667311122	0.2461197477167527
0.23300388339805667	0.2409408478204089
0.2340039000650011	0.235840568064521
0.23500391673194554	0.23077081602217644
0.23600393339889	0.2256834687677149
0.23700395006583444	0.220530372876729
0.2380039667327789	0.21526334442606415
0.23900398339972334	0.20983416899381765
0.2400040000666678	0.20419460165934084
0.24100401673361224	0.19831171362021094
0.2420040334005567	0.19222093981333824
0.24300405006750114	0.1859767306665338
0.2440040667344456	0.1796335069085374
0.24500408340139004	0.17324565876934206
0.24600410006833448	0.1668675459801927
0.24700411673527894	0.16055349777358732
0.24800413340222338	0.15435781288327713
0.24900415006916785	0.14833475954426484
0.2500041667361123	0.14253857549280669
0.25100418340305675	0.1370110423504471
0.2520042000700012	0.1317382844469333
0.2530042167369456	0.1266908354459471
0.2540042334038901	0.12183919777717225
0.25500425007083455	0.11715384337154569
0.256004266737779	0.11260521366125653
0.2570042834047234	0.10816371957974683
0.25800430007166786	0.10379974156171122
0.25900431673861235	0.09948362954309731
0.2600043334055568	0.09518570296110472
0.2610043500725012	0.09088265057279726
0.26200436673944566	0.086579910807899
0.26300438340639015	0.0822909782573735
0.2640044000733346	0.07802931744141142
0.265004416740279	0.07380836238145592
0.26600443340722346	0.06964151660020235
0.2670044500741679	0.06554215312159953
0.2680044667411124	0.061523614470848434
0.2690044834080568	0.05759921267440286
0.27000450007500126	0.05378222925996923
0.2710045167419457	0.05008109281795993
0.2720045334088902	0.04648217720556461
0.27300455007583463	0.04296283433217724
0.27400456674277907	0.039499078193388444
0.2750045834097235	0.03606699599795419
0.276004600076668	0.03264268560122312
0.27700461674361243	0.029202255505136433
0.27800463341055687	0.02572182485822731
0.2790046500775013	0.02217752345562167
0.28000466674444574	0.018545491739037752
0.28100468341139023	0.014813012592506312
0.28200470007833467	0.011017893501399317
0.2830047167452791	0.007212273695261465
0.28400473341222354	0.003448303988749426
0.28500475007916803	-0.00022185415688808245
0.28600476674611247	-0.0037460286338094613
0.2870047834130569	-0.007072036687581058
0.28800480008000134	-0.010147684917176825
0.2890048167469458	-0.012920769274978063
0.2900048334138903	-0.015339075066773964
0.2910048500808347	-0.01736783908753447
0.29200486674777915	-0.019051885887915315
0.2930048834147236	-0.02045869735117415
0.2940049000816681	-0.021655746357353317
0.2950049167486125	-0.022710495139902975
0.29600493341555695	-0.02369039528568075
0.2970049500825014	-0.02466288773495192
0.2980049667494459	-0.025695402781389338
0.2990049834163903	-0.02685536007207357
0.30000500008333475	-0.028210168607492644
0.3010050167502792	-0.029809164466584284
0.3020050334172236	-0.03161896708632832
0.3030050500841681	-0.03358252732755791
0.30400506675111255	-0.03564278355141667
0.305005083418057	-0.03774266347245558
0.3060051000850014	-0.03982508415863347
0.3070051167519459	-0.04183295203131651
0.30800513341889035	-0.04370916286527882
0.3090051500858348	-0.0453966017887019
0.3100051667527792	-0.046838143283174816
0.31100518341972366	-0.047990879211787615
0.31200520008666816	-0.04887733552939818
0.3130052167536126	-0.04953883231583089
0.31400523342055703	-0.0500166806554016
0.31500525008750146	-0.05035218098583407
0.31600526675444596	-0.05058662309825955
0.3170052834213904	-0.05076128613721704
0.31800530008833483	-0.05091743860065284
0.31900531675527927	-0.051096338339921235
0.3200053334222237	-0.05133923255978375
0.3210053500891682	-0.0516795402721876
0.32200536675611263	-0.05211454859884009
0.32300538342305707	-0.052631108504216546
0.3240054000900015	-0.05321605930363743
0.325005416756946	-0.053856229665830736
0.32600543342389043	-0.054538437612932235
0.32700545009083487	-0.055249490520485035
0.3280054667577793	-0.05597618511744014
0.3290054834247238	-0.056705307486155924
0.33000550009166824	-0.057423633062398706
0.3310055167586127	-0.05811949353676729
0.3320055334255571	-0.058788482669017476
0.33300555009250155	-0.05942829206355085
0.33400556675944604	-0.0600366028996032
0.3350055834263905	-0.06061108570981767
0.3360056000933349	-0.06114940038024516
0.33700561676027935	-0.06164919615034435
0.33800563342722384	-0.06210811161298107
0.3390056500941683	-0.06252377471442912
0.3400056667611127	-0.06289380275436995
0.34100568342805715	-0.0632167942074845
0.3420057000950016	-0.06349596126253826
0.3430057167619461	-0.0637358521486381
0.3440057334288905	-0.0639410046023176
0.34500575009583495	-0.06411594571351809
0.3460057667627794	-0.06426519192558824
0.3470057834297239	-0.06439324903528457
0.3480058000966683	-0.06450461219277104
0.34900581676361275	-0.06460376590161948
0.3500058334305572	-0.06469518401880904
0.3510058500975017	-0.06478085096881706
0.3520058667644461	-0.06485113083271181
0.35300588343139055	-0.06489298098943022
0.354005900098335	-0.06489334774941755
0.35500591676527943	-0.06483916677652714
0.3560059334322239	-0.06471736308801926
0.35700595009916836	-0.0645148510545625
0.3580059667661128	-0.06421853422250826
0.35900598343305723	-0.06381308785602972
0.3600060001000017	-0.06328243783701623
0.36100601676694616	-0.06261739994493527
0.3620060334338906	-0.061833233119070394
0.36300605010083503	-0.06095232656967001
0.36400606676777947	-0.05999699713052135
0.36500608343472396	-0.05898948828922218
0.3660061001016684	-0.05795197018718088
0.36700611676861283	-0.05690653961961673
0.36800613343555727	-0.055875220035559496
0.36900615010250176	-0.0548799615378496
0.3700061667694462	-0.05394264088313843
0.37100618343639064	-0.053081314275230766
0.37200620010333507	-0.05229625457210839
0.37300621677027956	-0.051582434340819036
0.374006233437224	-0.05093475204152649
0.37500625010416844	-0.050348032788204856
0.3760062667711129	-0.049817028348639075
0.3770062834380573	-0.04933641714442472
0.3780063001050018	-0.04890080425096813
0.37900631677194624	-0.0485047213974862
0.3800063334388907	-0.048142626967006504
0.3810063501058351	-0.0478063622054396
0.3820063667727796	-0.04747561805104936
0.38300638343972404	-0.047126431762263436
0.3840064001066685	-0.046734766689235964
0.3850064167736129	-0.04627651283593193
0.38600643344055735	-0.04572748686012714
0.38700645010750184	-0.04506343207340772
0.3880064667744463	-0.04426001844117092
0.3890064834413907	-0.04329284258262414
0.39000650010833515	-0.04213742777078598
0.39100651677527964	-0.04077637588186506
0.3920065334422241	-0.03922632426105978
0.3930065501091685	-0.03751399396824826
0.39400656677611295	-0.03566603443369008
0.3950065834430574	-0.03370902174145559
0.3960066001100019	-0.031669458629425745
0.3970066167769463	-0.029573774489292274
0.39800663344389076	-0.02744832536655736
0.3990066501108352	-0.02531939396053423
0.4000066667777797	-0.023213189624346414
0.4010066834447241	-0.021148619291463194
0.40200670011166856	-0.01910989515090796
0.403006716778613	-0.01707081684756389
0.4040067334455575	-0.015005111073050977
0.4050067501125019	-0.012886431183349372
0.40600676677944636	-0.01068835718825031
0.4070067834463908	-0.008384395751355248
0.40800680011333523	-0.005947980190076788
0.4090068167802797	-0.003352470475638083
0.41000683344722416	-0.0005711532330726042
0.4110068501141686	0.002418195488763913
0.41200686678111303	0.0056149781738367285
0.4130068834480575	0.00900897281931611
0.41400690011500196	0.012589030326728293
0.4150069167819464	0.016343614525792714
0.41600693344889084	0.020260802174421298
0.4170069501158353	0.024328282958718857
0.41800696678277977	0.028533359492983676
0.4190069834497242	0.03286294731970596
0.42000700011666864	0.037303574909569495
0.4210070167836131	0.04184426875862444
0.42200703345055757	0.046487616038294606
0.423007050117502	0.05124002612017369
0.42400706678444644	0.05610752218144322
0.4250070834513909	0.06109574032747778
0.42600710011833537	0.06620992959184441
0.4270071167852798	0.07145495193630327
0.42800713345222424	0.07683528225080737
0.4290071501191687	0.08235500835350235
0.4300071667861131	0.08801783099072712
0.4310071834530576	0.0938225815924192
0.43200720012000204	0.09974593706610228
0.4330072167869465	0.10575758878868478
0.4340072334538909	0.11182683959540861
0.4350072501208354	0.11792260524970913
0.43600726678777985	0.12401341444321427
0.4370072834547243	0.1300674087957453
0.4380073001216687	0.13605234285531567
0.43900731678861316	0.141935584098132
0.44000733345555765	0.14768411292859368
0.4410073501225021	0.1532719377883011
0.4420073667894465	0.15870885421930164
0.44300738345639096	0.16401528518804626
0.44400740012333545	0.1692112692070077
0.4450074167902799	0.17431645771685159
0.4460074334572243	0.17935011508643617
0.44700745012416876	0.18433111861281254
0.44800746679111325	0.18927795852122498
0.4490074834580577	0.19420873796511012
0.4500075001250021	0.19914117302609805
0.45100751679194656	0.2040821432837418
0.452007533458891	0.20898693258844536
0.4530075501258355	0.2137947759943795
0.4540075667927799	0.2184445175184777
0.45500758345972436	0.22287461410586681
0.4560076001266688	0.2270231356298662
0.4570076167936133	0.23082776489198772
0.45800763346055773	0.2342270083538828
0.45900765012750216	0.2371730379978254
0.4600076667944466	0.23961697002190147
0.46100768346139104	0.2415233410722594
0.46200770012833553	0.24293054793678334
0.46300771679527997	0.24390011555625
0.4640077334622244	0.24449420729291094
0.46500775012916884	0.2447756188716995
0.46600776679611333	0.24480777838023018
0.46700778346305777	0.24465474626879846
0.4680078001300022	0.2443812153503819
0.46900781679694664	0.24405251080063842
0.4700078334638911	0.2437345901579081
0.47100785013083557	0.24347644393374313
0.47200786679778	0.24324066081644177
0.47300788346472444	0.24296360572264228
0.4740079001316689	0.24258226824831833
0.47500791679861337	0.24203427035212446
0.4760079334655578	0.24125786635539698
0.47700795013250225	0.24019194294215324
0.4780079667994467	0.23877601915909208
0.4790079834663912	0.23695024641559356
0.4800080001333356	0.23465540848371894
0.48100801680028005	0.23184719558239292
0.4820080334672245	0.2285528410844736
0.4830080501341689	0.22482218898132927
0.4840080668011134	0.22070572229716282
0.48500808346805785	0.2162545564188587
0.4860081001350023	0.2115204390959828
0.4870081168019467	0.20655575044078223
0.4880081334688912	0.2014135029281851
0.48900815013583565	0.1961473413958012
0.4900081668027801	0.19081154304392156
0.4910081834697245	0.18545393025743295
0.49200820013666896	0.18008758982801734
0.49300821680361345	0.17471523015422807
0.4940082334705579	0.169340188457054
0.4950082501375023	0.16396643432016472
0.49600826680444676	0.15859856968991176
0.49700828347139125	0.15324182887532753
0.4980083001383357	0.14790207854812568
0.4990083168052801	0.14258581774270157
0.5000083334722246	0.1373001778561317
0.501008350139169	0.1320374188685705
0.5020083668061135	0.12675615829203116
0.5030083834730579	0.12146014322809674
0.5040084001400024	0.11615555452241386
0.5050084168069469	0.11084727792124247
0.5060084334738912	0.10553890407145888
0.5070084501408357	0.1002327285205532
0.5080084668077802	0.09492975171663094
0.5090084834747246	0.08962967900841225
0.5100085001416691	0.08433092064523232
0.5110085168086135	0.07903465127785898
0.512008533475558	0.07376119401963717
0.5130085501425025	0.06853599804161731
0.5140085668094468	0.06338321972423847
0.5150085834763913	0.058325720348554516
0.5160086001433357	0.05338506609623426
0.5170086168102802	0.04858152804956131
0.5180086334772247	0.043934082191434395
0.5190086501441691	0.03946040940536671
0.5200086668111136	0.03517689547548667
0.5210086834780581	0.03109647934825272
0.5220087001450024	0.027219919375462864
0.5230087168119469	0.023543244589000405
0.5240087334788913	0.020061187617848926
0.5250087501458358	0.016767185991606277
0.5260087668127803	0.013653382140485887
0.5270087834797247	0.010710623395315436
0.5280088001466692	0.007928461987537865
0.5290088168136136	0.005295155049210852
0.530008833480558	0.0027976646130069473
0.5310088501475025	0.00041755818085669437
0.5320088668144469	-0.0018857251398810716
0.5330088834813914	-0.00416064310813131
0.5340089001483358	-0.006456951224549021
0.5350089168152803	-0.008825700089174422
0.5360089334822248	-0.01131923540143275
0.5370089501491692	-0.013991197960134533
0.5380089668161137	-0.016896523663475126
0.5390089834830581	-0.020091443509035446
0.5400090001500025	-0.02363348359378129
0.541009016816947	-0.02753951658215413
0.5420090334838914	-0.03180129062912885
0.5430090501508359	-0.03646711401322748
0.5440090668177804	-0.04157086395169377
0.5450090834847248	-0.04713102701796684
0.5460091001516693	-0.0531506991416811
0.5470091168186136	-0.0596175856086664
0.5480091334855581	-0.06650400106094749
0.5490091501525026	-0.07376686949674467
0.550009166819447	-0.08134772427047342
0.5510091834863915	-0.08918476013070527
0.552009200153336	-0.09726258972039623
0.5530092168202804	-0.10557019527061769
0.5540092334872249	-0.1140811771354305
0.5550092501541692	-0.12275374502509044
0.5560092668211137	-0.13153071800604893
0.5570092834880582	-0.14033952450095258
0.5580093001550026	-0.14909220228864317
0.5590093168219471	-0.1576853985041578
0.5600093334888915	-0.1660003696387289
0.561009350155836	-0.1738914715510486
0.5620093668227805	-0.18113837133373167
0.5630093834897248	-0.18748630382834636
0.5640094001566693	-0.19266510435162454
0.5650094168236138	-0.19642830987982932
0.5660094334905582	-0.1988503624452532
0.5670094501575027	-0.19958679041389396
0.5680094668244471	-0.19819948798106038
0.5690094834913916	-0.19429142227173235
0.5700095001583361	-0.18750663334056097
0.5710095168252804	-0.1775418853903449
0.5720095334922249	-0.16419531541303228
0.5730095501591693	-0.14732558231767767
0.5740095668261138	-0.1268324274700037
0.5750095834930583	-0.10265666516540434
0.5760096001600027	-0.0747801826289445
0.5770096168269472	-0.04322594001536418
0.5780096334938916	-0.008057970409063612
0.579009650160836	0.030618620175875643
0.5800096668277805	0.07265765279570376
0.5810096834947249	0.11788656037399523
0.5820097001616694	0.16616805002803348
0.5830097168286139	0.21734848971650095
0.5840097334955583	0.2712331871815021
0.5850097501625028	0.32758637723547024
0.5860097668294472	0.38613122176116793
0.5870097834963917	0.4465498097116856
0.5880098001633361	0.5084831571104441
0.5890098168302805	0.5715312070511912
0.590009833497225	0.6322944968067412
0.5910098501641694	0.6857796308686213
0.5920098668311139	0.7322018763198748
0.5930098834980584	0.7718310444845717
0.5940099001650028	0.8049330151196844
0.5950099168319473	0.8317697506992027
0.5960099334988918	0.8525992964141321
0.5970099501658361	0.8676757801724967
0.5980099668327806	0.8772494125993355
0.599009983499725	0.8815664870367058
0.6000100001666695	0.8808693795436804
0.601010016833614	0.8754095127779908
0.6020100335005584	0.8655024010364165
0.6030100501675029	0.8514818378876785
0.6040100668344472	0.8336777049061957
0.6050100835013917	0.8124159666552778
0.6060101001683362	0.7880186704152514
0.6070101168352806	0.7608039461834586
0.6080101335022251	0.7310860066742604
0.6090101501691695	0.6991751473190332
0.610010166836114	0.6653777462661701
0.6110101835030585	0.6299806749384221
0.6120102001700028	0.5931847199898879
0.6130102168369473	0.5551597769975903
0.6140102335038918	0.5160718083203465
0.6150102501708362	0.4760828590339902
0.6160102668377807	0.4353510569313716
0.6170102835047251	0.39403061252235905
0.6180103001716696	0.3522718190338363
0.6190103168386141	0.3102210524097044
0.6200103335055585	0.268020771310881
0.621010350172503	0.225828132256173
0.6220103668394473	0.1838949386648713
0.6230103835063918	0.14250157595544696
0.6240104001733363	0.10192453234195799
0.6250104168402807	0.062436378755475856
0.6260104335072252	0.024305768844090817
0.6270104501741697	-0.012202561027089378
0.6280104668411141	-0.0468277917759425
0.6290104835080585	-0.07931302160332658
0.6300105001750029	-0.10940526599308588
0.6310105168419474	-0.13686404881298206
0.6320105335088919	-0.16149850803154198
0.6330105501758363	-0.183136832843086
0.6340105668427808	-0.20161113949546036
0.6350105835097252	-0.21675746151949482
0.6360106001766697	-0.22841574972900505
0.6370106168436142	-0.23642987222078637
0.6380106335105585	-0.24064761437461843
0.639010650177503	-0.24092067885326293
0.6400106668444474	-0.23710468560246956
0.6410106835113919	-0.22913069582205803
0.6420107001783364	-0.21865516543850824
0.6430107168452808	-0.20667331122504037
0.6440107335122253	-0.19348962839645664
0.6450107501791698	-0.17939228637239962
0.6460107668461141	-0.16465312877735272
0.6470107835130586	-0.14952767344063972
0.648010800180003	-0.13425511239642576
0.6490108168469475	-0.11905831188371609
0.650010833513892	-0.10414381234635678
0.6510108501808364	-0.08969259340821606
0.6520108668477809	-0.07581973571995283
0.6530108835147252	-0.06260743138430254
0.6540109001816697	-0.050121535058170845
0.6550109168486142	-0.038411575603304354
0.6560109335155586	-0.02751075608629015
0.6570109501825031	-0.017435953778556217
0.6580109668494476	-0.008187720156371021
0.659010983516392	0.00024971909915610024
0.6600110001833365	0.007908464102075276
0.6610110168502809	0.014828029837082231
0.6620110335172253	0.021016204282361978
0.6630110501841698	0.02648097573335611
0.6640110668511142	0.031246646453109643
0.6650110835180587	0.03535384449982684
0.6660111001850031	0.0388595237268717
0.6670111168519476	0.041836963782766974
0.6680111335188921	0.044375770111195346
0.6690111501858365	0.04658187395099827
0.670011166852781	0.048570537033052884
0.6710111835197254	0.05024285014502191
0.6720112001866698	0.05157642896419181
0.6730112168536143	0.052650529100906444
0.6740112335205587	0.05354337882115416
0.6750112501875032	0.05433216240420121
0.6760112668544477	0.05509302014259309
0.6770112835213921	0.05590104834215229
0.6780113001883366	0.056830299321980214
0.6790113168552809	0.05795378141445595
0.6800113335222254	0.05934345896523731
0.6810113501891699	0.06105889106692829
0.6820113668561143	0.06309676268588947
0.6830113835230588	0.06543178298412552
0.6840114001900032	0.06803760047825815
0.6850114168569477	0.0708868196981876
0.6860114335238922	0.07395100118709258
0.6870114501908365	0.0772006615014294
0.688011466857781	0.08060527321093276
0.6890114835247255	0.084133264898616
0.6900115001916699	0.08775202116077042
0.6910115168586144	0.0914294048203286
0.6920115335255588	0.0951405569361274
0.6930115501925033	0.0988624043477245
0.6940115668594478	0.1025708322515795
0.6950115835263921	0.10624068185743041
0.6960116001933366	0.10984575038829325
0.697011616860281	0.11335879108046247
0.6980116335272255	0.11675387404021337
0.69901165019417	0.12001859579807356
0.7000116668611144	0.12313329381790704
0.7010116835280589	0.12608334237901409
0.7020117001950034	0.1288928751050602
0.7030117168619477	0.1315991992349717
0.7040117335288922	0.13423951134831755
0.7050117501958366	0.13685087613838898
0.7060117668627811	0.13947022638746118
0.7070117835297256	0.1421343629667962
0.70801180019667	0.14487995483664107
0.7090118168636145	0.1477435390462285
0.7100118335305589	0.15076152073377683
0.7110118501975033	0.1539657114801728
0.7120118668644478	0.1573631735240907
0.7130118835313922	0.16095239296252012
0.7140119001983367	0.16473171642175613
0.7150119168652811	0.16869935861708057
0.7160119335322256	0.17285340235276025
0.7170119501991701	0.1771917985220474
0.7180119668661145	0.18171236610718025
0.719011983533059	0.18641279217938284
0.7200120002000034	0.19129063189886394
0.7210120168669478	0.19634058234719803
0.7220120335338923	0.20154209767914028
0.7230120502008367	0.2068692940415699
0.7240120668677812	0.21229615082893236
0.7250120835347257	0.21779651552465892
0.7260121002016701	0.2233441037011661
0.7270121168686146	0.22891249901985616
0.7280121335355589	0.23447515323111726
0.7290121502025034	0.24000538617432235
0.7300121668694479	0.24547638577783093
0.7310121835363923	0.2508663445695338
0.7320122002033368	0.25618192565995285
0.7330122168702813	0.26143955768097815
0.7340122335372257	0.2666555469089679
0.7350122502041702	0.27184606770926695
0.7360122668711145	0.27703325750899443
0.737012283538059	0.28224248398218094
0.7380123002050035	0.2874868832028147
0.7390123168719479	0.2927794336586892
0.7400123335388924	0.29813321018342376
0.7410123502058368	0.3035586623281792
0.7420123668727813	0.3090511108867238
0.7430123835397258	0.31460068151107606
0.7440124002066701	0.32019759089833766
0.7450124168736146	0.32583215209143557
0.7460124335405591	0.3314947744791235
0.7470124502075035	0.3371759637959807
0.748012466874448	0.3428663221224124
0.7490124835413924	0.34855654788464996
0.7500125002083369	0.3542374358547504
0.7510125168752814	0.35989943788618434
0.7520125335422257	0.36553063355788684
0.7530125502091702	0.37111833706790703
0.7540125668761146	0.376649958064914
0.7550125835430591	0.3821130025434026
0.7560126002100036	0.3874950728436935
0.757012616876948	0.39278386765193396
0.7580126335438925	0.39796718200009656
0.7590126502108369	0.4030329072659798
0.7600126668777814	0.40796903117320893
0.7610126835447258	0.4127655092937351
0.7620127002116702	0.41742295969343296
0.7630127168786147	0.42194580127441494
0.7640127335455592	0.42633855327348025
0.7650127502125036	0.43060583127325397
0.7660127668794481	0.43475234720218714
0.7670127835463925	0.4387829093345569
0.768012800213337	0.44270242229046647
0.7690128168802814	0.44651588703584505
0.7700128335472258	0.4502284008824476
0.7710128502141703	0.4538435538065361
0.7720128668811147	0.45735593627564597
0.7730128835480592	0.4607570321496124
0.7740129002150037	0.46403841806123675
0.7750129168819481	0.46719176698914683
0.7760129335488926	0.4702088482577955
0.777012950215837	0.4730815275374622
0.7780129668827814	0.47580176684425196
0.7790129835497259	0.4783616245400962
0.7800130002166703	0.48075325533275204
0.7810130168836148	0.48296920370926705
0.7820130335505593	0.48500378249919
0.7830130502175037	0.4868519922171365
0.7840130668844482	0.4885089304065643
0.7850130835513925	0.48996979095675736
0.786013100218337	0.4912298641028259
0.7870131168852815	0.4922845364257054
0.7880131335522259	0.49312929085215756
0.7890131502191704	0.49375970665477037
0.7900131668861148	0.49417145945195756
0.7910131835530593	0.494361802094532
0.7920132002200038	0.49433656091387757
0.7930132168869481	0.4941046698131562
0.7940132335538926	0.49367395705100103
0.7950132502208371	0.4930326072183014
0.7960132668877815	0.4921874366968032
0.797013283554726	0.491154517313222
0.7980133002216704	0.489949883390045
0.7990133168886149	0.4885895317455301
0.8000133335555594	0.4870894216937073
0.8010133502225038	0.48546165648341844
0.8020133668894482	0.48369634020841273
0.8030133835563926	0.48177568497000295
0.8040134002233371	0.479681842642283
0.8050134168902816	0.47739692652385257
0.806013433557226	0.47490301233461246
0.8070134502241705	0.4721821382902357
0.808013466891115	0.4692163051021658
0.8090134835580594	0.46598747597761736
0.8100135002250038	0.4624775766195772
0.8110135168919482	0.4586745076050489
0.8120135335588927	0.454600868043823
0.8130135502258372	0.45029166631748696
0.8140135668927816	0.44578188921804807
0.8150135835597261	0.44110648603328434
0.8160136002266705	0.4363003685467455
0.817013616893615	0.43139841103775234
0.8180136335605594	0.4264354502813968
0.8190136502275038	0.4214462855485424
0.8200136668944483	0.41646567860582384
0.8210136835613928	0.41152336893085323
0.8220137002283372	0.40662012602245795
0.8230137168952817	0.4017462694580971
0.8240137335622261	0.3968920675512485
0.8250137502291706	0.39204775111116186
0.826013766896115	0.3872035134428582
0.8270137835630594	0.3823495103471294
0.8280138002300039	0.37747586012053885
0.8290138168969483	0.3725726435554215
0.8300138335638928	0.36762990393988315
0.8310138502308373	0.3626377340517798
0.8320138668977817	0.3575866964296362
0.8330138835647262	0.35246749946114275
0.8340139002316705	0.3472708142800698
0.835013916898615	0.34198727451595995
0.8360139335655595	0.336607476294127
0.8370139502325039	0.33112197823565553
0.8380139668994484	0.32552130145740193
0.8390139835663929	0.31979592957199354
0.8400140002333373	0.3139363086878289
0.8410140169002818	0.3079376320838132
0.8420140335672262	0.30182308441508837
0.8430140502341706	0.29562598812405394
0.8440140669011151	0.2893796424931439
0.8450140835680595	0.2831173093005636
0.846014100235004	0.2768722128202894
0.8470141169019484	0.2706775398220691
0.8480141335688929	0.2645664395714216
0.8490141502358374	0.2585720238296375
0.8500141669027818	0.252727366853778
0.8510141835697262	0.24705828877299493
0.8520142002366707	0.24154810082990863
0.8530142169036151	0.23616459133342868
0.8540142335705596	0.23087548855532997
0.855014250237504	0.22564848326315898
0.8560142669044485	0.22045122872023323
0.857014283571393	0.21525134068564133
0.8580143002383374	0.21001639741424352
0.8590143169052818	0.20471393965667145
0.8600143335722262	0.19931147065932714
0.8610143502391707	0.19378659751755162
0.8620143669061152	0.1881768507789202
0.8630143835730596	0.18254168083803893
0.8640144002400041	0.17694053355080216
0.8650144169069485	0.17143281726887627
0.866014433573893	0.16607790283969864
0.8670144502408375	0.1609351236064779
0.8680144669077818	0.15606377540819416
0.8690144835747263	0.15152311657959847
0.8700145002416708	0.1473723679512134
0.8710145169086152	0.1436567585760926
0.8720145335755597	0.14033859203483007
0.8730145502425041	0.13734964940260055
0.8740145669094486	0.1346189365105506
0.8750145835763931	0.132071876233322
0.8760146002433374	0.12963660419560608
0.8770146169102819	0.12724128379806104
0.8780146335772263	0.1248140652361326
0.8790146502441708	0.1222830855000516
0.8800146669111153	0.1195764683748365
0.8810146835780597	0.1166362877891496
0.8820147002450042	0.11348793167276713
0.8830147169119487	0.11018755439845447
0.884014733578893	0.10679134627005783
0.8850147502458375	0.1033554843862098
0.8860147669127819	0.0999361326403294
0.8870147835797264	0.09658944172062206
0.8880148002466709	0.09337154911007975
0.8890148169136153	0.0903385790864806
0.8900148335805598	0.08754664272238936
0.8910148502475042	0.08504145689435741
0.8920148669144486	0.08280648802986205
0.8930148835813931	0.08080210019444421
0.8940149002483375	0.07898860626208441
0.895014916915282	0.0773263059015495
0.8960149335822265	0.07577548557639295
0.8970149502491709	0.0742964185449547
0.8980149669161154	0.0728493648603605
0.8990149835830598	0.07139457137052324
0.9000150002500042	0.0698922717181418
0.9010150169169487	0.06830939367054935
0.9020150335838931	0.06665325127636261
0.9030150502508376	0.06494619596532722
0.904015066917782	0.06321058943305422
0.9050150835847265	0.061468780086311445
0.906015100251671	0.0597431031266534
0.9070151169186154	0.05805588055042103
0.9080151335855599	0.05642942114874131
0.9090151502525042	0.054886020507528
0.9100151669194487	0.053447961007481413
0.9110151835863932	0.052133821268078875
0.9120152002533376	0.05093983426803938
0.9130152169202821	0.04985386275153957
0.9140152335872266	0.04886374167093764
0.915015250254171	0.04795729277337832
0.9160152669211155	0.04712232460079229
0.9170152835880598	0.04634663248989712
0.9180153002550043	0.04561799857219639
0.9190153169219488	0.04492419177398029
0.9200153335888932	0.04425296781632569
0.9210153502558377	0.043594537786302484
0.9220153669227821	0.04295410706778008
0.9230153835897266	0.04234250812990639
0.9240154002566711	0.04177057037136602
0.9250154169236154	0.041249109985630215
0.9260154335905599	0.0407889299609567
0.9270154502575044	0.040400820080389345
0.9280154669244488	0.04009555692175864
0.9290154835913933	0.03988390385768127
0.9300155002583377	0.03977661105556066
0.9310155169252822	0.0397812376728115
0.9320155335922267	0.03988592036298462
0.933015550259171	0.04007145637215151
0.9340155669261155	0.04031861619396826
0.9350155835930599	0.04060815711687781
0.9360156002600044	0.040920823224109275
0.9370156169269489	0.04123734568261854
0.9380156335938933	0.041543338750240626
0.9390156502608378	0.04182428780496668
0.9400156669277822	0.04206100557908023
0.9410156835947266	0.04223759672459904
0.9420157002616711	0.04235793857000522
0.9430157169286155	0.04243345576187221
0.94401573359556	0.042475670359603535
0.9450157502625045	0.04249618763633963
0.9460157669294489	0.04250669607895821
0.9470157835963934	0.04251896738807409
0.9480158002633378	0.042544856478039
0.9490158169302823	0.042596301476942336
0.9500158335972267	0.04268532372661013
0.9510158502641711	0.04282079223367157
0.9520158669311156	0.042991712352476855
0.95301588359806	0.04317957827580367
0.9540159002650045	0.043365952552745286
0.955015916931949	0.0435324809461322
0.9560159335988934	0.04366089243253214
0.9570159502658379	0.04373299920225002
0.9580159669327823	0.04373069665932773
0.9590159835997267	0.0436359634215444
0.9600160002666712	0.043430861320416465
0.9610160169336156	0.043103502270065056
0.9620160336005601	0.042679038458330966
0.9630160502675046	0.042196836749647054
0.964016066934449	0.04169637564495194
0.9650160836013935	0.04121721685892124
0.9660161002683378	0.040799005319967864
0.9670161169352823	0.04048146917024171
0.9680161336022268	0.04030441976562996
0.9690161502691712	0.04030775167575684
0.9700161669361157	0.04053144268398395
0.9710161836030601	0.041005862976963646
0.9720162002700046	0.04170116325973585
0.9730162169369491	0.04256441963908668
0.9740162336038934	0.0435427435651428
0.9750162502708379	0.04458332970176819
0.9760162669377824	0.04563345592656406
0.9770162836047268	0.046640483330868565
0.9780163002716713	0.04755185621975708
0.9790163169386157	0.048315102112042256
0.9800163336055602	0.04887783174027378
0.9810163502725047	0.04919863793650091
0.982016366939449	0.04930433420456818
0.9830163836063935	0.04924809673141778
0.9840164002733379	0.04908324073153114
0.9850164169402824	0.048863164633126635
0.9860164336072269	0.04864135007815969
0.9870164502741713	0.048471361922322945
0.9880164669411158	0.04840684823504633
0.9890164836080603	0.04850154029949676
0.9900165002750047	0.04880925261257847
0.9910165169419491	0.04937530178027749
0.9920165336088935	0.050191189238650506
0.993016550275838	0.05122762230341201
0.9940165669427825	0.052455345960802445
0.9950165836097269	0.05384518841079972
0.9960166002766714	0.055368061067118696
0.9970166169436158	0.056994443615552275
0.9980166336105603	0.05868233336657858
0.9990166502775047	0.06040083585847317
1.0000166669444492	0.062125690760405625
1.0010166836113936	0.06383694132534967
1.002016700278338	0.0655441744766508
1.0030167169452826	0.06726822203658095
1.004016733612227	0.0690295324084688
1.0050167502791714	0.07084810704986513
1.0060167669461157	0.07274349758593031
1.0070167836130604	0.07473480643041229
1.0080168002800047	0.07684068679574207
1.0090168169469491	0.07907934269303887
1.0100168336138937	0.08146852893210522
1.011016850280838	0.08402382679552539
1.0120168669477825	0.08674943600429418
1.013016883614727	0.08964483590848883
1.0140169002816715	0.09270904683582568
1.0150169169486158	0.0959406399127099
1.0160169336155604	0.09933773706422887
1.0170169502825048	0.10289801101415894
1.0180169669494492	0.1066186852849593
1.0190169836163936	0.11049653419777748
1.0200170002833382	0.11452788287244364
1.0210170169502826	0.11870813850866528
1.022017033617227	0.12302927344501383
1.0230170502841716	0.1274816393299192
1.024017066951116	0.1320551358461449
1.0250170836180603	0.13673921347514253
1.026017100285005	0.1415228734970493
1.0270171169519493	0.14639466799068532
1.0280171336188937	0.15134269983356027
1.0290171502858383	0.15635462270186573
1.0300171669527827	0.16141764107048265
1.031017183619727	0.16652045820141323
1.0320172002866714	0.17166379479055377
1.033017216953616	0.17685283492563
1.0340172336205604	0.18209232538595965
1.0350172502875048	0.18738656374954207
1.0360172669544494	0.1927393983930663
1.0370172836213938	0.19815422849190273
1.0380173002883382	0.20363400402011228
1.0390173169552828	0.20918122575043632
1.0400173336222271	0.21479794525430732
1.0410173502891715	0.2204826785631753
1.0420173669561161	0.22621364787792772
1.0430173836230605	0.23196077262983666
1.044017400290005	0.23769350354829327
1.0450174169569493	0.24338357473635164
1.0460174336238939	0.24902023726348538
1.0470174502908383	0.25456970132670365
1.0480174669577826	0.2599930693724096
1.0490174836247272	0.2652522484844628
1.0500175002916716	0.27030995038418926
1.051017516958616	0.27513480026384163
1.0520175336255606	0.2797292314003717
1.053017550292505	0.2841095990126612
1.0540175669594494	0.2882930963543654
1.055017583626394	0.29229772131659754
1.0560176002933384	0.2961422764279358
1.0570176169602827	0.2998463688544166
1.0580176336272271	0.30343041039954133
1.0590176502941717	0.3069156175042693
1.060017666961116	0.31032401124702547
1.0610176836280605	0.31367194209302673
1.062017700295005	0.31693453760963963
1.0630177169619495	0.3200709543559025
1.0640177336288938	0.32304110974403855
1.0650177502958385	0.32580572582373085
1.0660177669627828	0.3283263292821261
1.0670177836297272	0.3305652514438303
1.0680178002966716	0.3324856282709132
1.0690178169636162	0.3340514003629046
1.0700178336305606	0.3352273129567966
1.071017850297505	0.3359836935045008
1.0720178669644496	0.33632282900526034
1.073017883631394	0.3362603001809762
1.0740179002983383	0.33581252579739196
1.075017916965283	0.334996729257714
1.0760179336322273	0.333830938602609
1.0770179502991717	0.3323339865102061
1.0780179669661163	0.3305255102960954
1.0790179836330607	0.32842595191332924
1.080018000300005	0.3260565579524206
1.0810180169669494	0.32343715003915163
1.082018033633894	0.32057374648806064
1.0830180503008384	0.3174672892543874
1.0840180669677828	0.3141195088132622
1.0850180836347274	0.31053294027728007
1.0860181003016718	0.306710923396494
1.0870181169686162	0.30265760255842256
1.0880181336355608	0.29837792678804215
1.0890181503025052	0.29387764974779385
1.0900181669694495	0.28916332973757747
1.0910181836363941	0.2842328400689328
1.0920182003033385	0.27908404757423266
1.093018216970283	0.2737466742056273
1.0940182336372273	0.26825087312316986
1.0950182503041719	0.2626261039104734
1.0960182669711163	0.2569011325747013
1.0970182836380606	0.2511040315465771
1.0980183003050052	0.24526217968037442
1.0990183169719496	0.23940226225392705
1.100018333638894	0.23355027096861875
1.1010183503058386	0.22772977432678063
1.102018366972783	0.2219522077427432
1.1030183836397274	0.21622364655917548
1.104018400306672	0.21054940853047235
1.1050184169736164	0.20493411057417643
1.1060184336405607	0.1993816760313798
1.1070184503075051	0.1938953346667357
1.1080184669744497	0.1884776226684464
1.109018483641394	0.18313038264827497
1.1100185003083385	0.17785476364153457
1.111018516975283	0.17265083028853986
1.1120185336422275	0.1675153566262143
1.1130185503091719	0.1624433640965725
1.1140185669761165	0.15742917744800147
1.1150185836430608	0.15246642785244777
1.1160186003100052	0.14754805290540887
1.1170186169769498	0.14266629662594132
1.1180186336438942	0.1378127094566532
1.1190186503108386	0.13297814826371124
1.120018666977783	0.12815277633683364
1.1210186836447276	0.12333128852169825
1.122018700311672	0.11854257187196846
1.1230187169786163	0.11382910644390917
1.124018733645561	0.10923272176168954
1.1250187503125053	0.10479455377303756
1.1260187669794497	0.10055504484923292
1.1270187836463943	0.09655394378511388
1.1280188003133387	0.09283030579907042
1.129018816980283	0.08942249253305096
1.1300188336472277	0.08636817205255615
1.131018850314172	0.0836945239884155
1.1320188669811164	0.08136232900256857
1.1330188836480608	0.07930465126375161
1.1340189003150054	0.07745377804414207
1.1350189169819498	0.07574130303947531
1.1360189336488942	0.07409812636903902
1.1370189503158388	0.0725294437838327
1.1380189669827832	0.07102787180850645
1.1390189836497275	0.06942799350378058
1.1400190003166721	0.06757173893041397
1.1410190169836165	0.06532030385011864
1.142019033650561	0.0626104616769654
1.1430190503175053	0.059415751548870736
1.1440190669844499	0.0557192539194124
1.1450190836513943	0.05151350440300785
1.1460191003183386	0.04680049377490673
1.1470191169852832	0.04159166797119844
1.1480191336522276	0.03590792808880442
1.149019150319172	0.02977963038548664
1.1500191669861166	0.023246586279837885
1.151019183653061	0.016351728845533743
1.1520192003200054	0.009104556353478607
1.15301921698695	0.001506231818099056
1.1540192336538944	-0.0064326839930147935
1.1550192503208387	-0.014692175151436672
1.1560192669877831	-0.023242770567899033
1.1570192836547277	-0.032045543992305824
1.158019300321672	-0.04105211401371733
1.1590193169886165	-0.05020464406036554
1.160019333655561	-0.05943584239963858
1.1610193503225055	-0.06866454713792136
1.1620193669894499	-0.07777010126764701
1.1630193836563945	-0.08660987915767195
1.1640194003233388	-0.0950317587206504
1.1650194169902832	-0.10298773561044663
1.1660194336572278	-0.11052609096291874
1.1670194503241722	-0.11721316251233432
1.1680194669911166	-0.12261431417497866
1.169019483658061	-0.12632731874209432
1.1700195003250056	-0.12798235787987253
1.17101951699195	-0.12724679241404752
1.1720195336588943	-0.12385300361101403
1.173019550325839	-0.11757942419137149
1.1740195669927833	-0.1082369417834411
1.1750195836597277	-0.09566885289049001
1.1760196003266723	-0.07975086289074709
1.1770196169936167	-0.060391086037381504
1.178019633660561	-0.03753004545852971
1.1790196503275057	-0.01114067315726244
1.18001966699445	0.018771689988375553
1.1810196836613944	0.05217352769610347
1.1820197003283388	0.08902799415164606
1.1830197169952834	0.12927805139062187
1.1840197336622278	0.17283429471232334
1.1850197503291722	0.21957491054112804
1.1860197669961168	0.2693456764264203
1.1870197836630612	0.32195996104267577
1.1880198003300055	0.3771987241893715
1.1890198169969501	0.4348105167910808
1.1900198336638945	0.49451148089737385
1.191019850330839	0.5559835859444301
1.1920198669977835	0.6188642198542178
1.1930198836647279	0.6827962910958773
1.1940199003316723	0.7473010296906081
1.1950199169986166	0.8111636083226137
1.1960199336655613	0.8731791523928877
1.1970199503325056	0.9322506264818
1.19801996699945	0.9873888343489897
1.1990199836663946	1.0377124189334672
1.200020000333339	1.0824478623535188
1.2010200170002834	1.1209270427473979
1.202020033667228	1.1525727353516477
1.2030200503341724	1.1769083825507425
1.2040200670011167	1.1935652640543748
1.2050200836680613	1.2022825053448432
1.2060201003350057	1.202907074555451
1.20702011700195	1.1953937798495076
1.2080201336688945	1.1798052685696458
1.209020150335839	1.156312027237811
1.2100201670027835	1.1251923815552856
1.2110201836697279	1.0868412070530642
1.2120202003366725	1.0418219104934554
1.2130202170036168	0.9908315622545438
1.2140202336705612	0.9346709867015939
1.2150202503375058	0.8741027443111202
1.2160202670044502	0.8100753476654294
1.2170202836713946	0.7435880695225519
1.218020300338339	0.6755804182603334
1.2190203170052836	0.6069321378763247
1.220020333672228	0.5384632079878953
1.2210203503391723	0.4709200045114622
1.222020367006117	0.4048922522755825
1.2230203836730613	0.340868511402695
1.2240204003400057	0.27927742201424416
1.2250204170069503	0.22048785985137817
1.2260204336738947	0.16480893627506174
1.227020450340839	0.1124899982659675
1.2280204670077837	0.06372062842457918
1.229020483674728	0.01863064497109517
1.2300205003416724	-0.02270989825448205
1.2310205170086168	-0.06027754999263444
1.2320205336755614	-0.09401603960278464
1.2330205503425058	-0.12388913126926634
1.2340205670094502	-0.14992020104645587
1.2350205836763948	-0.172192389368994
1.2360206003433392	-0.19048338359748906
1.2370206170102835	-0.20449204944729532
1.2380206336772281	-0.21453957381459443
1.2390206503441725	-0.22093900863544125
1.240020667011117	-0.2239879745301889
1.2410206836780615	-0.22397663092607964
1.242020700345006	-0.22123603811948853
1.2430207170119503	-0.2161061008939332
1.2440207336788947	-0.20891138786474617
1.2450207503458393	-0.19996103633155946
1.2460207670127836	-0.1895487522783168
1.247020783679728	-0.17795281037325827
1.2480208003466726	-0.16543605396893835
1.249020817013617	-0.15224589510220576
1.2500208336805614	-0.1386143144942252
1.251020850347506	-0.12475527153666409
1.2520208670144504	-0.11084890066538311
1.2530208836813947	-0.0970519448439064
1.2540209003483394	-0.08350568387054241
1.2550209170152837	-0.07033596622789183
1.2560209336822281	-0.05765320908287248
1.2570209503491725	-0.0455523982866949
1.258020967016117	-0.034113088374886094
1.2590209836830615	-0.023399402567266813
1.2600210003500059	-0.013460032767972625
1.2610210170169505	-0.004326807131699662
1.2620210336838948	0.003994099038018955
1.2630210503508392	0.011516384031965143
1.2640210670177838	0.018269195597773413
1.2650210836847282	0.024297112798780506
1.2660211003516726	0.029660146014012352
1.2670211170186172	0.03446390330543377
1.2680211336855616	0.03888098897020004
1.269021150352506	0.04297401643354576
1.2700211670194503	0.04679547449904256
1.271021183686395	0.050394074065478967
1.2720212003533393	0.053798980442845666
1.2730212170202837	0.057030139593708555
1.2740212336872283	0.060106241787128784
1.2750212503541727	0.06304475492480083
1.276021267021117	0.06586192454104665
1.2770212836880617	0.06857277380282052
1.278021300355006	0.07119110350970517
1.2790213170219504	0.07372949209391494
1.2800213336888948	0.07619929562029283
1.2810213503558394	0.07861009688983925
1.2820213670227838	0.0809662874414812
1.2830213836897282	0.08326929693609765
1.2840214003566728	0.08551932527100423
1.2850214170236172	0.08771534997614541
1.2860214336905615	0.08985512621409694
1.2870214503575061	0.0919351867800633
1.2880214670244505	0.09395084210188105
1.289021483691395	0.0958961802400147
1.2900215003583395	0.097764066887561
1.291021517025284	0.09954956440047714
1.2920215336922283	0.10127126330034358
1.2930215503591727	0.10295742541164284
1.2940215670261173	0.10463513744151082
1.2950215836930616	0.10633026372971213
1.296021600360006	0.10806744624864224
1.2970216170269506	0.10987010460332626
1.298021633693895	0.11176043603142022
1.2990216503608394	0.11375941540320898
1.300021667027784	0.11588679522160983
1.3010216836947284	0.11816029405287638
1.3020217003616728	0.12059050484422222
1.3030217170286174	0.12318418744385537
1.3040217336955617	0.12594685834002753
1.3050217503625061	0.12888280799269233
1.3060217670294505	0.13199510448644194
1.307021783696395	0.13528559353849592
1.3080218003633395	0.13875489849870717
1.3090218170302839	0.1424028601050381
1.3100218336972285	0.1462652210793524
1.3110218503641728	0.15037010389381986
1.3120218670311172	0.15469643384423643
1.3130218836980618	0.15920999221453094
1.3140219003650062	0.1638763638381933
1.3150219170319506	0.16866099577280524
1.3160219336988952	0.17352919730004787
1.3170219503658396	0.1784461399256944
1.318021967032784	0.18337685737961654
1.3190219836997283	0.18828624561577814
1.320022000366673	0.19313906281224255
1.3210220170336173	0.1979048155329075
1.3220220337005617	0.20258875714937982
1.3230220503675063	0.2072119983559132
1.3240220670344507	0.21179558564261194
1.325022083701395	0.21636042772367128
1.3260221003683397	0.22092729553738624
1.327022117035284	0.2255168222461436
1.3280221337022284	0.230149503236429
1.329022150369173	0.2348456961188202
1.3300221670361174	0.23962562072799437
1.3310221837030618	0.24450771706354207
1.3320222003700062	0.24949816967660554
1.3330222170369508	0.25459760126796976
1.3340222337038952	0.25980647132909873
1.3350222503708395	0.26512510157554714
1.3360222670377842	0.27055367594696983
1.3370222837047285	0.2760922406071127
1.338022300371673	0.28174070394382167
1.3390223170386175	0.2874988365690334
1.340022333705562	0.29336627131878495
1.3410223503725063	0.2993400183103767
1.3420223670394509	0.30539852353728103
1.3430223837063953	0.3115118125168619
1.3440224003733396	0.3176497334050934
1.345022417040284	0.32378199658203916
1.3460224337072286	0.32987817465186375
1.347022450374173	0.3359077024428224
1.3480224670411174	0.3418398770072709
1.349022483708062	0.3476447072207512
1.3500225003750064	0.35330416554019306
1.3510225170419508	0.35879368545528084
1.3520225337088954	0.36411484389476895
1.3530225503758397	0.3692833880726177
1.3540225670427841	0.37431530272265867
1.3550225837097285	0.37922674190588823
1.356022600376673	0.3840340290104778
1.3570226170436175	0.38875365675176393
1.3580226337105619	0.3934022871722577
1.3590226503775065	0.39799675164163617
1.3600226670444509	0.40255405085675044
1.3610226837113952	0.40708998010486697
1.3620227003783398	0.4116102111949392
1.3630227170452842	0.4161159195780311
1.3640227337122286	0.42060842687744165
1.3650227503791732	0.4250892240436344
1.3660227670461176	0.4295599713542477
1.367022783713062	0.43402249841408563
1.3680228003800063	0.43847880415512647
1.369022817046951	0.44293105683651435
1.3700228337138953	0.44738159404456723
1.3710228503808397	0.4518302473275457
1.3720228670477843	0.4562568897642215
1.3730228837147287	0.4606324015423277
1.374022900381673	0.4649277858523287
1.3750229170486177	0.4691142152118557
1.376022933715562	0.4731630314657134
1.3770229503825064	0.47704574578587294
1.378022967049451	0.48073403867147807
1.3790229837163954	0.4841997599488411
1.3800230003833398	0.4874149287714456
1.3810230170502842	0.49035521664409565
1.3820230337172288	0.4930227956063655
1.3830230503841732	0.49543204342882385
1.3840230670511176	0.4975975691992375
1.3850230837180622	0.4995341513325417
1.3860231003850065	0.5012567375708424
1.387023117051951	0.5027804449834152
1.3880231337188955	0.5041205599667069
1.38902315038584	0.5052925382443317
1.3900231670527843	0.5063120048670768
1.3910231837197289	0.5071908951640346
1.3920232003866733	0.5079119982502683
1.3930232170536176	0.5084448156901817
1.394023233720562	0.5087589477891057
1.3950232503875066	0.5088241641795399
1.396023267054451	0.5086104038211546
1.3970232837213954	0.5080877750007899
1.39802330038834	0.5072265553324561
1.3990233170552844	0.5059971917573335
1.4000233337222288	0.5043703005437716
1.4010233503891734	0.5023252201512517
1.4020233670561177	0.49990674657983414
1.4030233837230621	0.4971899407257598
1.4040234003900067	0.49425019515604446
1.405023417056951	0.49116307270087367
1.4060234337238955	0.4880043034240202
1.4070234503908399	0.4848497835169481
1.4080234670577845	0.48177469435132747
1.4090234837247289	0.47884092808129347
1.4100235003916732	0.4761231636898997
1.4110235170586178	0.4736885739764619
1.4120235337255622	0.4715004355394841
1.4130235503925066	0.46947389714993126
1.4140235670594512	0.4675237816627172
1.4150235837263956	0.4655648474135039
1.41602360039334	0.46351178821870775
1.4170236170602846	0.46127923337549526
1.418023633727229	0.4587817476617862
1.4190236503941733	0.4559338313362498
1.4200236670611177	0.4526499201383105
1.4210236837280623	0.4488569417971337
1.4220237003950067	0.4445785449724482
1.423023717061951	0.43988330326807445
1.4240237337288957	0.43483997486041304
1.42502375039584	0.42951725340661157
1.4260237670627844	0.42398376804457405
1.427023783729729	0.41830808339295183
1.4280238003966734	0.4125586995511521
1.4290238170636178	0.4068040520993301
1.4300238337305622	0.40111251209839616
1.4310238503975068	0.39554433691725227
1.4320238670644512	0.3900973739494672
1.4330238837313956	0.3847403041676829
1.4340239003983402	0.3794415800150279
1.4350239170652845	0.3741695894153773
1.436023933732229	0.36889265577336344
1.4370239503991735	0.3635790379743645
1.438023967066118	0.3581969303845164
1.4390239837330623	0.35271446285070107
1.4400240004000069	0.34709970070055757
1.4410240170669513	0.3413254188891329
1.4420240337338956	0.33540148685250243
1.44302405040084	0.3293551273863698
1.4440240670677846	0.3232135986718734
1.445024083734729	0.317004094370899
1.4460241004016734	0.3107537436260885
1.447024117068618	0.30448961106083056
1.4480241337355624	0.2982386967792715
1.4490241504025068	0.29202793636630264
1.4500241670694514	0.28588420088757394
1.4510241837363957	0.2798320936435656
1.4520242004033401	0.2738789209160163
1.4530242170702847	0.2680238131188261
1.454024233737229	0.2622657888026177
1.4550242504041735	0.256603801998761
1.4560242670711179	0.2510367422193824
1.4570242837380625	0.24556343445735546
1.4580243004050069	0.24018263918630992
1.4590243170719512	0.23489305236062255
1.4600243337388958	0.22969330541542707
1.4610243504058402	0.22458143549582046
1.4620243670727846	0.21955125140054363
1.4630243837397292	0.2145945292967036
1.4640244004066736	0.20970296914402697
1.465024417073618	0.20486820638298686
1.4660244337405626	0.20008181193481306
1.467024450407507	0.19533529220148257
1.4680244670744513	0.1906200890657284
1.4690244837413957	0.18592757989103084
1.4700245004083403	0.18124907752162642
1.4710245170752847	0.17657739347246182
1.472024533742229	0.17191762107818517
1.4730245504091737	0.1672806492765583
1.474024567076118	0.16267733789135883
1.4750245837430624	0.15811848222711208
1.476024600410007	0.15361427391717095
1.4770246170769514	0.1491729135277867
1.4780246337438958	0.14480243611781105
1.4790246504108404	0.1405108653499653
1.4800246670777848	0.1363062013710841
1.4810246837447292	0.1321969497921302
1.4820247004116736	0.12819579116650315
1.4830247170786182	0.12431738363034431
1.4840247337455625	0.12057637410202339
1.485024750412507	0.11698738598401687
1.4860247670794515	0.1135650191629146
1.487024783746396	0.11032385000941422
1.4880248004133403	0.10727843137832588
1.489024817080285	0.10444329260856769
1.4900248337472293	0.10183293952317057
1.4910248504141737	0.09945690992861231
1.4920248670811183	0.09728528150666754
1.4930248837480626	0.09526923341058813
1.494024900415007	0.09335980329721591
1.4950249170819514	0.09150800530749968
1.496024933748896	0.08966483006650097
1.4970249504158404	0.08778124468339019
1.4980249670827848	0.08580819275144905
1.4990249837497294	0.08369659434806795
1.5000250004166737	0.08139734603474977
1.5010250170836181	0.07886986746215004
1.5020250337505627	0.07614205620967214
1.5030250504175071	0.07327471033995406
1.5040250670844515	0.07032884098148892
1.5050250837513959	0.06736546160711973
1.5060251004183405	0.06444556319108635
1.5070251170852849	0.06163011319173734
1.5080251337522292	0.0589800555515321
1.5090251504191738	0.05655631069703965
1.5100251670861182	0.054419775538940784
1.5110251837530626	0.052623069405810435
1.5120252004200072	0.05115230589811916
1.5130252170869516	0.049961489669021884
1.514025233753896	0.04900439447315555
1.5150252504208406	0.048234770549266
1.516025267087785	0.04760634462021066
1.5170252837547293	0.04707281989295618
1.5180253004216737	0.04658787605858025
1.5190253170886183	0.04610516929227011
1.5200253337555627	0.04557833225332414
1.521025350422507	0.04496564959957977
1.5220253670894517	0.044263226801108765
1.523025383756396	0.04348548621710304
1.5240254004233404	0.04264694721203848
1.525025417090285	0.04176210563450092
1.5260254337572294	0.040845433817187075
1.5270254504241738	0.03991138057690297
1.5280254670911184	0.03897437121456604
1.5290254837580628	0.038048807515202926
1.5300255004250072	0.037149067747951334
1.5310255170919516	0.03628837927612861
1.5320255337588962	0.03547077568148053
1.5330255504258405	0.034695804361247896
1.534025567092785	0.0339629593851235
1.5350255837597295	0.03327171130690954
1.536025600426674	0.03262346416562696
1.5370256170936183	0.03202382694948601
1.538025633760563	0.03147295709362576
1.5390256504275073	0.03097065445805034
1.5400256670944517	0.030516787098369635
1.5410256837613963	0.03011117147822142
1.5420257004283406	0.02975271308610341
1.543025717095285	0.029439907114156116
1.5440257337622294	0.029171313701116048
1.545025750429174	0.028945561181326223
1.5460257670961184	0.028761346084735545
1.5470257837630628	0.028617433136899777
1.5480258004300074	0.028512655258980786
1.5490258170969518	0.02844591356774672
1.5500258337638961	0.028416177375572154
1.5510258504308407	0.028422521654514164
1.5520258670977851	0.028464397325782292
1.5530258837647295	0.028541474521749228
1.554025900431674	0.028653492612547356
1.5550259170986185	0.028800259163915362
1.5560259337655629	0.02898164993719832
1.5570259504325072	0.02919760888934776
1.5580259670994518	0.02944814817292131
1.5590259837663962	0.029733348136083138
1.5600260004333406	0.030053357322603672
1.5610260171002852	0.030407428532007615
1.5620260337672296	0.030786925162767653
1.563026050434174	0.031179357763714746
1.5640260671011186	0.03157227758169175
1.565026083768063	0.031953304059147626
1.5660261004350073	0.032310124834137484
1.567026117101952	0.032630495740323284
1.5680261337688963	0.0329022408069729
1.5690261504358407	0.03311325225896056
1.570026167102785	0.033251490516767374
1.5710261837697297	0.03330716246255229
1.572026200436674	0.03328861447530962
1.5730262171036185	0.033213202613168964
1.574026233770563	0.03309841484392443
1.5750262504375074	0.03296180733097542
1.5760262671044518	0.03282100443332869
1.5770262837713964	0.03269369870559685
1.5780263004383408	0.032597650897998695
1.5790263171052852	0.032550689956359596
1.5800263337722296	0.03257071302211151
1.5810263504391742	0.03267346405600777
1.5820263671061185	0.03285623484154372
1.583026383773063	0.03310718363760987
1.5840264004400075	0.03341447028276048
1.585026417106952	0.03376632281115567
1.5860264337738963	0.03415103745256204
1.587026450440841	0.034556978632352305
1.5880264671077853	0.03497257897150615
1.5890264837747297	0.03538633928660886
1.5900265004416743	0.03578682858985278
1.5910265171086186	0.03616608150036982
1.592026533775563	0.03654466689742504
1.5930265504425074	0.036957082170277225
1.594026567109452	0.03742661318129881
1.5950265837763964	0.037986317021094146
1.5960266004433408	0.03867618525224133
1.5970266171102854	0.03953591622551775
1.5980266337772298	0.04060491507990212
1.5990266504441741	0.04192229374257265
1.6000266671111187	0.043526870928909084
1.6010266837780631	0.045450178040706155
1.6020267004450075	0.0476645600105167
1.603026717111952	0.050112563670917175
1.6040267337788965	0.05273617320331292
1.6050267504458409	0.055477007940456506
1.6060267671127852	0.05827638856644058
1.6070267837797299	0.06107534526690719
1.6080268004466742	0.0638146167249889
1.6090268171136186	0.06643464843870768
1.6100268337805632	0.06887559269428802
1.6110268504475076	0.07108650052642936
1.612026867114452	0.07309391527527827
1.6130268837813966	0.07496321699461853
1.614026900448341	0.07675978940518205
1.6150269171152853	0.07854872301589792
1.61602693378223	0.08039481512389884
1.6170269504491743	0.08236256981451548
1.6180269671161187	0.08451619796128057
1.619026983783063	0.08691961722592562
1.6200270004500077	0.08963645205838484
1.621027017116952	0.09272225272511928
1.6220270337838965	0.09616610278407228
1.623027050450841	0.09992336621113378
1.6240270671177854	0.10394885622612215
1.6250270837847298	0.10819709283705281
1.6260271004516744	0.11262230284014552
1.6270271171186188	0.11717841981981612
1.6280271337855632	0.12181908414868524
1.6290271504525078	0.1264976429875696
1.6300271671194522	0.13116715028549064
1.6310271837863966	0.13578690079535927
1.632027200453341	0.14037174214633938
1.6330272171202855	0.14496455517588294
1.63402723378723	0.1496081491254924
1.6350272504541743	0.15434504002486665
1.636027267121119	0.15921745069190968
1.6370272837880633	0.16426731073272077
1.6380273004550077	0.16953625654160467
1.6390273171219523	0.1750656313010616
1.6400273337888966	0.1808964849817971
1.641027350455841	0.18707154893997596
1.6420273671227856	0.19357333400178375
1.64302738378973	0.2003187096755921
1.6440274004566744	0.2072233943266816
1.6450274171236188	0.21420368076863208
1.6460274337905634	0.22117643626333053
1.6470274504575078	0.22805910252096273
1.6480274671244521	0.23476969570002387
1.6490274837913967	0.24122680640730598
1.6500275004583411	0.24734959969791026
1.6510275171252855	0.2530672133118013
1.65202753379223	0.25839049136067727
1.6530275504591745	0.26337234543430077
1.6540275671261189	0.26806659618240236
1.6550275837930633	0.27252763870301155
1.6560276004600079	0.276810442542465
1.6570276171269522	0.2809705516953989
1.6580276337938966	0.2850640846047566
1.6590276504608412	0.2891477341617813
1.6600276671277856	0.2932787677060232
1.66102768379473	0.2975054548257624
1.6620277004616746	0.30179359184622684
1.663027717128619	0.3060669012438687
1.6640277337955633	0.3102493308198923
1.665027750462508	0.31426540282380167
1.6660277671294523	0.31804021395340665
1.6670277837963967	0.3214994353548208
1.668027800463341	0.32456931262245853
1.6690278171302857	0.32717666579904053
1.67002783379723	0.3292488893755883
1.6710278504641745	0.33072429461690067
1.672027867131119	0.33163194665275614
1.6730278837980634	0.33204798699983856
1.6740279004650078	0.3320495180045554
1.6750279171319524	0.3317142164616167
1.6760279337988968	0.3311203336140368
1.6770279504658412	0.3303466951531331
1.6780279671327858	0.3294727012185262
1.6790279837997302	0.3285783263981404
1.6800280004666746	0.32774411972820294
1.681028017133619	0.3270377844995045
1.6820280338005635	0.32640999390857744
1.683028050467508	0.3257511013470111
1.6840280671344523	0.3249515211481929
1.685028083801397	0.32390224209381285
1.6860281004683413	0.3224948274138653
1.6870281171352857	0.3206214147866461
1.6880281338022303	0.318173522589981
1.6890281504691746	0.31502787597435467
1.690028167136119	0.3110834335198348
1.6910281838030636	0.30626439876004274
1.692028200470008	0.30064517564283233
1.6930282171369524	0.29437801802435204
1.6940282338038968	0.2876153443935212
1.6950282504708414	0.2805090673352218
1.6960282671377858	0.27321059353030247
1.6970282838047301	0.26587082375557636
1.6980283004716747	0.2586401528838261
1.6990283171386191	0.2516684698837932
1.7000283338055635	0.24510515782019263
1.701028350472508	0.2390834853504814
1.7020283671394525	0.23359805367168718
1.7030283838063969	0.22857082864919592
1.7040284004733415	0.22392268421425465
1.7050284171402859	0.2195740807918932
1.7060284338072302	0.215444985798649
1.7070284504741746	0.21145486074702227
1.7080284671411192	0.20752266124548222
1.7090284838080636	0.2035668369984587
1.710028500475008	0.1995053318063536
1.7110285171419526	0.1952626546123299
1.712028533808897	0.1908257147741243
1.7130285504758413	0.18621389235839025
1.714028567142786	0.1814463520604351
1.7150285838097303	0.17654175267152739
1.7160286004766747	0.171518247078906
1.7170286171436193	0.16639348226577025
1.7180286338105637	0.16118459931129056
1.719028650477508	0.155908233390598
1.7200286671444525	0.15058051377479362
1.721028683811397	0.14521845666627087
1.7220287004783414	0.13985102604654648
1.7230287171452858	0.13451323531576556
1.7240287338122304	0.1292396505622512
1.7250287504791748	0.12406433197028824
1.7260287671461192	0.11902083382013061
1.7270287838130638	0.11414220448799432
1.7280288004800082	0.10946098644606451
1.7290288171469526	0.10500921626248866
1.730028833813897	0.10081842460138367
1.7310288504808415	0.09691556810075613
1.732028867147786	0.09329053949747022
1.7330288838147303	0.08991340317712354
1.734028900481675	0.08675354242529716
1.7350289171486193	0.08377983462353392
1.7360289338155637	0.08096065124934607
1.7370289504825083	0.07826766751079577
1.7380289671494527	0.0756783501207884
1.739028983816397	0.0731312845992405
1.7400290004833416	0.07056060214319243
1.741029017150286	0.06790443188617974
1.7420290338172304	0.06513027579099341
1.7430290504841748	0.06222161803726667
1.7440290671511194	0.05916292077078399
1.7450290838180638	0.05593948483107128
1.7460291004850081	0.05253744975140032
1.7470291171519527	0.04894379375878373
1.7480291338188971	0.04514633377398039
1.7490291504858415	0.04113372541148976
1.7500291671527861	0.03689546297955799
1.7510291838197305	0.032419306846769746
1.7520292004866749	0.027670502365962493
1.7530292171536195	0.022602688450547033
1.7540292338205639	0.017170226623185302
1.7550292504875082	0.011328317100278115
1.7560292671544526	0.0050329987919745765
1.7570292838213972	-0.0017588506978378467
1.7580293004883416	-0.009089515071522615
1.759029317155286	-0.01700043933770576
1.7600293338222306	-0.025544176150797373
1.761029350489175	-0.03471472899369757
1.7620293671561194	-0.044359836458237066
1.763029383823064	-0.054300661721794964
1.7640294004900083	-0.06435352870991647
1.7650294171569527	-0.0743300887674776
1.7660294338238973	-0.08403732065866826
1.7670294504908417	-0.0932775305670087
1.768029467157786	-0.10184835209533374
1.7690294838247305	-0.10954274626580772
1.770029500491675	-0.11614900151991045
1.7710295171586194	-0.12145576695899782
1.7720295338255638	-0.1252931749880427
1.7730295504925084	-0.1275114842338823
1.7740295671594528	-0.12795651862464685
1.7750295838263972	-0.12646942950779158
1.7760296004933418	-0.12288669565009357
1.7770296171602862	-0.11704012323764992
1.7780296338272306	-0.10875684587588452
1.7790296504941752	-0.09785932458953696
1.7800296671611195	-0.08416534782267748
1.781029683828064	-0.0674844927284683
1.7820297004950083	-0.04758904796147734
1.783029717161953	-0.024393631956519612
1.7840297338288973	0.0021040121489449993
1.7850297504958417	0.03207481236577111
1.7860297671627863	0.06562905345604804
1.7870297838297307	0.10281491873961156
1.788029800496675	0.14361849009398464
1.7890298171636196	0.18796374795444398
1.790029833830564	0.2357125713139454
1.7910298504975084	0.2866669114022093
1.792029867164453	0.3405867547050278
1.7930298838313974	0.3971808943361097
1.7940299004983418	0.4560961295346573
1.7950299171652861	0.5169171580975528
1.7960299338322308	0.579166576379448
1.7970299504991751	0.6423048792926606
1.7980299671661195	0.7057304603072806
1.7990299838330641	0.7687796114510623
1.8000300005000085	0.8307265233095323
1.8010300171669529	0.8907749225200927
1.8020300338338975	0.9479885695819142
1.8030300505008419	1.001326771271221
1.8040300671677862	1.0496862874307578
1.8050300838347306	1.0917999838247683
1.8060301005016752	1.1266799811746784
1.8070301171686196	1.1540219438039656
1.808030133835564	1.1736030259567307
1.8090301505025086	1.1852638478788122
1.810030167169453	1.1889084966846004
1.8110301838363974	1.1845145491782363
1.812030200503342	1.1722168502615586
1.8130302171702863	1.1522649412283
1.8140302338372307	1.1249723494099269
1.8150302505041753	1.090716069006466
1.8160302671711197	1.0499365610864586
1.817030283838064	1.0031377535870163
1.8180303005050085	0.9508870413137555
1.819030317171953	0.8938152859408753
1.8200303338388975	0.832616816011066
1.8210303505058418	0.768043322937414
1.8220303671727864	0.7008525466884404
1.8230303838397308	0.6318342066990718
1.8240304005066752	0.5618411658296596
1.8250304171736198	0.4917897538091565
1.8260304338405642	0.4226597672349948
1.8270304505075086	0.3554944695732087
1.8280304671744532	0.29140059115831085
1.8290304838413975	0.23105046304763913
1.830030500508342	0.174053448683514
1.8310305171752863	0.1205441217466139
1.832030533842231	0.07065548185765069
1.8330305505091753	0.024493166533231095
1.8340305671761197	-0.017864310121570342
1.8350305838430643	-0.056365554901925186
1.8360306005100087	-0.09098629550332657
1.837030617176953	-0.1217293805215216
1.8380306338438976	-0.14862477945257171
1.839030650510842	-0.17172958269279917
1.8400306671777864	-0.19112800153883383
1.841030683844731	-0.20692672886422692
1.8420307005116754	-0.21921548895603155
1.8430307171786198	-0.22808675070007053
1.8440307338455642	-0.23365984668531295
1.8450307505125088	-0.23608123040100656
1.8460307671794531	-0.2355244762366882
1.8470307838463975	-0.232190279482181
1.8480308005133421	-0.22630645632759114
1.8490308171802865	-0.21812794386331552
1.8500308338472309	-0.2079368000800303
1.8510308505141755	-0.19604812314532621
1.8520308671811199	-0.18286067475192755
1.8530308838480642	-0.16882891333325786
1.8540309005150089	-0.1542335807500949
1.8550309171819532	-0.13926050399330242
1.8560309338488976	-0.12413451215926243
1.857030950515842	-0.10906453804624815
1.8580309671827866	-0.09424361815439963
1.859030983849731	-0.0798488926857487
1.8600310005166754	-0.06604160554419332
1.86103101718362	-0.05296280199189394
1.8620310338505643	-0.04069632219596622
1.8630310505175087	-0.029287084057486094
1.8640310671844533	-0.018763859712389294
1.8650310838513977	-0.009139524998500272
1.866031100518342	-0.00041105945551342697
1.8670311171852865	0.007440453674989186
1.868031133852231	0.014449827449553903
1.8690311505191755	0.020667771222841497
1.8700311671861198	0.02616089064763967
1.8710311838530644	0.03101039419215457
1.8720312005200088	0.03530090326503033
1.8730312171869532	0.03912594879981075
1.8740312338538978	0.04259488133287943
1.8750312505208422	0.045832947698738094
1.8760312671877866	0.04894692734146386
1.8770312838547312	0.05190839654509276
1.8780313005216756	0.054742451546558865
1.87903131718862	0.05748203067197952
1.8800313338555643	0.060158413527745334
1.881031350522509	0.0627990680081244
1.8820313671894533	0.06540891754771992
1.8830313838563977	0.06797948967366474
1.8840314005233423	0.07050052266077589
1.8850314171902867	0.07296009606413996
1.886031433857231	0.07534463071911733
1.8870314505241756	0.07763888874133902
1.88803146719112	0.0798259735267093
1.8890314838580644	0.08188732975140268
1.890031500525009	0.0838027433718675
1.8910315171919534	0.08555454581180814
1.8920315338588978	0.08716440461915771
1.8930315505258422	0.08867546052985055
1.8940315671927868	0.09012945617288842
1.8950315838597311	0.09156647545754214
1.8960316005266755	0.09302494357335714
1.8970316171936201	0.09454162699014881
1.8980316338605645	0.09615163345800602
1.8990316505275089	0.09788841200728807
1.9000316671944535	0.09978375294862776
1.9010316838613979	0.10186450688501288
1.9020317005283423	0.10413219070085694
1.9030317171952869	0.10658316977797241
1.9040317338622312	0.10920195398516963
1.9050317505291756	0.11197261981484788
1.90603176719612	0.11487915006300677
1.9070317838630646	0.11790540665462494
1.908031800530009	0.12103513059263839
1.9090318171969534	0.12425194195793532
1.910031833863898	0.1275393399093616
1.9110318505308423	0.1308821455839816
1.9120318671977867	0.13427927505562406
1.9130318838647313	0.13773761049798594
1.9140319005316757	0.14126400664572084
1.91503191719862	0.14486519731143402
1.9160319338655647	0.1485477953856887
1.917031950532509	0.15231829283699996
1.9180319671994535	0.15618306071184082
1.9190319838663978	0.16014834913463546
1.9200320005333424	0.16422028730776594
1.9210320172002868	0.16840409938938403
1.9220320338672312	0.17269712309981408
1.9230320505341758	0.17709213965022416
1.9240320672011202	0.18158175739878668
1.9250320838680646	0.18615846378163312
1.9260321005350092	0.19081462531284543
1.9270321172019536	0.19554248758446452
1.928032133868898	0.20033417526648203
1.9290321505358425	0.2051816921068483
1.930032167202787	0.2100769209314646
1.9310321838697313	0.21501225897489865
1.9320322005366757	0.2199863072441141
1.9330322172036203	0.2250011731346023
1.9340322338705647	0.23005888612876696
1.935032250537509	0.23516135478697134
1.9360322672044536	0.24031082184019673
1.937032283871398	0.24551948659764736
1.9380323005383424	0.2507911293008277
1.939032317205287	0.25612439101904083
1.9400323338722314	0.2615179556738786
1.9410323505391758	0.26696994821716785
1.9420323672061202	0.2724725141260813
1.9430323838730648	0.2780143737786298
1.9440324005400091	0.2835842487647347
1.9450324172069535	0.28917090352661534
1.9460324338738981	0.2947631453587805
1.9470324505408425	0.30034982440803787
1.9480324672077869	0.30591983367348313
1.9490324838747315	0.311462109006512
1.9500325005416759	0.31696562911080783
1.9510325172086203	0.32242004159007887
1.9520325338755649	0.3278213343338738
1.9530325505425092	0.3331691792030406
1.9540325672094536	0.33846333518103816
1.955032583876398	0.34370360410362366
1.9560326005433426	0.3488898306588439
1.957032617210287	0.3540219023870438
1.9580326338772314	0.3590997496808573
1.959032650544176	0.36412334578521777
1.9600326672111203	0.36909270679734646
1.9610326838780647	0.3740081603453165
1.9620327005450093	0.37887279367723603
1.9630327172119537	0.38369131408892365
1.964032733878898	0.3884684911448771
1.9650327505458427	0.3932091372618922
1.966032767212787	0.39791810770905495
1.9670327838797315	0.40260030060774954
1.9680328005466758	0.4072606569316484
1.9690328172136204	0.4119041605067239
1.9700328338805648	0.41653583801123695
1.9710328505475092	0.4211588103322088
1.9720328672144538	0.42575643420753106
1.9730328838813982	0.43030056373237185
1.9740329005483426	0.43476295195109577
1.9750329172152872	0.43911539476036393
1.9760329338822316	0.44332973090912936
1.977032950549176	0.44737784199864145
1.9780329672161205	0.4512316524824402
1.979032983883065	0.45486312966636255
1.9800330005500093	0.4582442837085368
1.9810330172169537	0.46135015647612665
1.9820330338838983	0.46418637217506326
1.9830330505508427	0.466776471606837
1.984033067217787	0.46914426396201964
1.9850330838847317	0.47131360128347993
1.986033100551676	0.4733083784663774
1.9870331172186204	0.475152533258168
1.988033133885565	0.4768700462585996
1.9890331505525094	0.47848494091971533
1.9900331672194538	0.4800212835458508
1.9910331838863984	0.4815000735254425
1.9920332005533428	0.4829104113677192
1.9930332172202871	0.4842226701291
1.9940332338872315	0.48540702595230617
1.9950332505541761	0.48643369783235335
1.9960332672211205	0.48725695773844274
1.997033283888065	0.48783384656556145
1.9980333005550095	0.4881423988917476
1.9990333172219539	0.4881606591066501
2.0000333338888985	0.48786666020610064
2.0010333505558426	0.4872410830645725
2.0020333672227872	0.4862920552708588
2.003033383889732	0.4850438940160606
2.004033400556676	0.4835211079901958
2.0050334172236206	0.48174812515724535
2.006033433890565	0.479749320573146
2.0070334505575094	0.4775490573981707
2.008033467224454	0.4751716906660358
2.0090334838913986	0.4726415689325466
2.0100335005583427	0.469983029765687
2.0110335172252873	0.46721899154542024
2.0120335338922315	0.4643577486462213
2.013033550559176	0.46139892726988585
2.0140335672261207	0.4583420289288534
2.015033583893065	0.45518654374174883
2.0160336005600095	0.4519319504333754
2.017033617226954	0.4485777163347198
2.0180336338938982	0.44512329738294903
2.019033650560843	0.44156813812141704
2.0200336672277874	0.4379116716996545
2.0210336838947316	0.4341533647326561
2.022033700561676	0.43029314052736606
2.023033717228621	0.42633118942333675
2.024033733895565	0.4222676940543174
2.0250337505625096	0.41810282566024215
2.026033767229454	0.41383674408722426
2.0270337838963983	0.40946959778756575
2.028033800563343	0.4050015238197439
2.0290338172302875	0.40043264784842103
2.0300338338972317	0.3957630841444383
2.0310338505641763	0.3909933021543436
2.032033867231121	0.38612760511885896
2.033033883898065	0.3811725813415851
2.0340339005650097	0.3761348385172987
2.0350339172319543	0.37102097294696434
2.0360339338988984	0.3658375695377221
2.037033950565843	0.36059120180289667
2.038033967232787	0.3552884318619922
2.039033983899732	0.3499358104407019
2.0400340005666764	0.3445398768708938
2.0410340172336205	0.33910643924201134
2.042034033900565	0.33363370333486486
2.0430340505675098	0.32811531166866525
2.044034067234454	0.3225448336183708
2.0450340839013985	0.31691582716512345
2.046034100568343	0.3112218388962459
2.0470341172352873	0.3054564040052493
2.048034133902232	0.2996130462918199
2.0490341505691765	0.29368527816182827
2.0500341672361206	0.28766660062732724
2.0510341839030652	0.2815525547355267
2.05203420057001	0.27536041741297784
2.053034217236954	0.2691205476497561
2.0540342339038986	0.26286347278269423
2.055034250570843	0.25661970875480467
2.0560342672377874	0.25041976011528905
2.057034283904732	0.24429412001952394
2.0580343005716766	0.23827327022907033
2.0590343172386207	0.23238768111166833
2.0600343339055653	0.22666781164124836
2.0610343505725095	0.22114112218733464
2.062034367239454	0.21580322611220223
2.0630343839063987	0.21063048047223618
2.064034400573343	0.20559896361618335
2.0650344172402875	0.20068474249896628
2.066034433907232	0.19586387268169034
2.0670344505741762	0.19111239833164245
2.068034467241121	0.186406352222297
2.0690344839080654	0.18172175573330418
2.0700345005750096	0.17703461885049893
2.071034517241954	0.17232306265750982
2.072034533908899	0.16758793714144576
2.073034550575843	0.1628438831874162
2.0740345672427876	0.15810572426046346
2.075034583909732	0.15338827243180925
2.0760346005766763	0.14870632837886422
2.077034617243621	0.14407468138521423
2.0780346339105655	0.1395081093406295
2.0790346505775097	0.13502095498493105
2.0800346672444543	0.1306188760914958
2.081034683911399	0.12630947099575274
2.082034700578343	0.12210063738735855
2.0830347172452877	0.11799885264279476
2.0840347339122323	0.11401055903624913
2.0850347505791764	0.11014218371916966
2.086034767246121	0.10640013872027167
2.087034783913065	0.10279082094553504
2.08803480058001	0.0993206121782101
2.0890348172469544	0.09599587907880819
2.0900348339138985	0.09282297318510792
2.091034850580843	0.08980703755931022
2.0920348672477878	0.08694027796031252
2.093034883914732	0.08420697836266973
2.0940349005816765	0.08159129388789176
2.095034917248621	0.07907736453475273
2.0960349339155653	0.07664931517929668
2.09703495058251	0.07429125557482957
2.0980349672494545	0.07198728035192416
2.0990349839163986	0.06972146901841828
2.1000350005833432	0.0674778859594187
2.101035017250288	0.06524166351278982
2.102035033917232	0.06300970959732258
2.1030350505841766	0.06078616048468697
2.104035067251121	0.058575245143759995
2.1050350839180654	0.056381226151382774
2.10603510058501	0.054208396115555293
2.1070351172519546	0.052061034226002695
2.1080351339188987	0.049943404549718434
2.1090351505858433	0.04785975603095907
2.110035167252788	0.045814322491247964
2.111035183919732	0.04381169150417782
2.1120352005866767	0.04186047269828942
2.113035217253621	0.03997175077965897
2.1140352339205655	0.038156631984021715
2.11503525058751	0.03642620742437709
2.1160352672544542	0.03479155309099303
2.117035283921399	0.033263729851400914
2.1180353005883434	0.031853783450398646
2.1190353172552876	0.030572744510049293
2.120035333922232	0.029431628529683555
2.121035350589177	0.028439849839396212
2.122035367256121	0.027589355996054526
2.1230353839230656	0.026861271535147554
2.12403540059001	0.02623654496700639
2.1250354172569543	0.025696109679226684
2.126035433923899	0.02522088393667061
2.1270354505908435	0.024791770881465627
2.1280354672577877	0.024389658533005495
2.1290354839247323	0.02399541978794989
2.130035500591677	0.02358991242022341
2.131035517258621	0.023155691871984595
2.1320355339255657	0.02269424590283884
2.1330355505925103	0.022218828711294103
2.1340355672594544	0.02174285677234323
2.135035583926399	0.021279731438244284
2.136035600593343	0.02084283893852193
2.137035617260288	0.020445550379965923
2.1380356339272324	0.020101221746632057
2.1390356505941766	0.01982319389984158
2.140035667261121	0.01962479257818248
2.1410356839280658	0.019516768828060922
2.14203570059501	0.019481391515248296
2.1430357172619545	0.01948314216283354
2.144035733928899	0.019486216530829006
2.1450357505958433	0.019457671995791598
2.146035767262788	0.019369182755221065
2.1470357839297325	0.019185389652151538
2.1480358005966766	0.01887063263534823
2.1490358172636213	0.018389338601608417
2.150035833930566	0.017706021395763234
2.15103585059751	0.01679009021650234
2.1520358672644546	0.015664807515773427
2.153035883931399	0.014387224664083431
2.1540359005983434	0.013014998998576811
2.155035917265288	0.011605874804431628
2.1560359339322326	0.010217683314857978
2.1570359505991767	0.00890834271110015
2.1580359672661213	0.007735858122434966
2.159035983933066	0.006758321626172812
2.16003600060001	0.006033912247657722
2.1610360172669547	0.005615309331866694
2.162036033933899	0.005492473881692379
2.1630360506008435	0.005615927511234447
2.164036067267788	0.00593566322886262
2.1650360839347322	0.006401760990979865
2.166036100601677	0.0069643877020223325
2.1670361172686214	0.007573797214459443
2.1680361339355656	0.008180330328793305
2.16903615060251	0.00873441479355999
2.170036167269455	0.009186565305328308
2.171036183936399	0.009491370891915568
2.1720362006033436	0.009648576304813935
2.173036217270288	0.00968649131531037
2.1740362339372323	0.009633961095866448
2.175036250604177	0.009519917766977155
2.1760362672711215	0.009373380397170707
2.1770362839380657	0.009223455003008413
2.1780363006050103	0.009099334549084862
2.179036317271955	0.009030298948027753
2.180036333938899	0.009045715060498248
2.1810363506058437	0.009172330372068233
2.1820363672727883	0.009406224525274315
2.1830363839397324	0.009724052580714754
2.184036400606677	0.01010224587623991
2.1850364172736216	0.010517322697733622
2.186036433940566	0.010945888279112605
2.1870364506075104	0.011364634802327134
2.1880364672744546	0.01175034139736073
2.189036483941399	0.012079874142229635
2.1900365006083438	0.012330186062983625
2.191036517275288	0.012481317789481736
2.1920365339422325	0.012547681468684912
2.193036550609177	0.012565614565351739
2.1940365672761213	0.012571893058920541
2.195036583943066	0.012603379876862587
2.1960366006100105	0.012697024894682225
2.1970366172769547	0.012889864935916498
2.1980366339438993	0.013219023772136617
2.199036650610844	0.013721712122946267
2.200036667277788	0.014435227655983023
2.2010366839447326	0.015393624404296008
2.2020367006116772	0.01659278236131786
2.2030367172786214	0.018004199259544548
2.204036733945566	0.019599061290181522
2.2050367506125106	0.021348630218964205
2.2060367672794547	0.023224238509253994
2.2070367839463993	0.025193897480040358
2.208036800613344	0.027216710146505747
2.209036817280288	0.02926665559625218
2.2100368339472327	0.03131892836247441
2.211036850614177	0.03335106893126683
2.2120368672811215	0.03537289273487483
2.213036883948066	0.03741476343370658
2.2140369006150102	0.03950690011337207
2.215036917281955	0.04167903110853299
2.2160369339488994	0.043960394002904316
2.2170369506158436	0.04637973562925015
2.218036967282788	0.04896531206939028
2.219036983949733	0.051744888654195624
2.220037000616677	0.05474573996359092
2.2210370172836216	0.05799165411185642
2.222037033950566	0.06147113836750851
2.2230370506175103	0.06514978067579565
2.224037067284455	0.06899230516881999
2.2250370839513995	0.0729629452277314
2.2260371006183437	0.0770254434827371
2.2270371172852883	0.08114305181309436
2.228037133952233	0.08527853134711547
2.229037150619177	0.08939415246215936
2.2300371672861217	0.0934516947846423
2.2310371839530663	0.09741632378619607
2.2320372006200104	0.10129798012632112
2.233037217286955	0.1051354130370135
2.2340372339538996	0.10896737362958264
2.235037250620844	0.11283212226438916
2.2360372672877884	0.11676742855084724
2.2370372839547326	0.12081057134741796
2.238037300621677	0.12499833876162077
2.2390373172886218	0.129367028150025
2.240037333955566	0.13395244611825521
2.2410373506225105	0.13878700503074648
2.242037367289455	0.14386853773149688
2.2430373839563993	0.14917223310123007
2.244037400623344	0.15467241277314583
2.2450374172902885	0.16034290762948913
2.2460374339572327	0.16615705780156464
2.2470374506241773	0.17208771266972683
2.248037467291122	0.17810723086338512
2.249037483958066	0.18418748026099377
2.2500375006250106	0.19029983799006683
2.2510375172919552	0.1964154545459314
2.2520375339588994	0.20250810758890178
2.253037550625844	0.2085531183911086
2.2540375672927886	0.2145253524192011
2.2550375839597327	0.22040694184536938
2.2560376006266774	0.22618823242031091
2.257037617293622	0.23183993445527537
2.258037633960566	0.2373327294779901
2.2590376506275107	0.2426381488128153
2.2600376672944553	0.2477285735807492
2.2610376839613995	0.2525779137239078
2.262037700628344	0.25716898886909845
2.2630377172952882	0.2614907484032144
2.264037733962233	0.26553308317587615
2.2650377506291774	0.2692867338333344
2.2660377672961216	0.2727432908184814
2.267037783963066	0.2758951943708429
2.268037800630011	0.27873573452658174
2.269037817296955	0.28125905111849236
2.2700378339638996	0.2834601337760093
2.271037850630844	0.2853353663977239
2.2720378672977883	0.28688848101589076
2.273037883964733	0.28812833352660894
2.2740379006316775	0.28906470461414596
2.2750379172986217	0.28970822475940433
2.2760379339655663	0.2900703742399228
2.277037950632511	0.2901634831298744
2.278037967299455	0.2900007313000696
2.2790379839663997	0.2895961484179532
2.2800380006333443	0.288964613947606
2.2810380173002884	0.28812043343885985
2.282038033967233	0.2870616764485351
2.2830380506341776	0.2857759796912422
2.284038067301122	0.2842516296218046
2.2850380839680664	0.28247776249168444
2.2860381006350106	0.2804443643489765
2.287038117301955	0.2781422710384127
2.2880381339688998	0.2755631682013586
2.289038150635844	0.27269959127582005
2.2900381673027885	0.2695449254964342
2.291038183969733	0.26609419072100216
2.2920382006366773	0.2623527272200625
2.293038217303622	0.2583330040493777
2.2940382339705665	0.25404845256859226
2.2950382506375107	0.24951335393398785
2.2960382673044553	0.24474283909847958
2.2970382839714	0.2397528888116247
2.298038300638344	0.23455284010332555
2.2990383173052886	0.22913714363546647
2.3000383339722332	0.2235244436267093
2.3010383506391774	0.2177356415708515
2.302038367306122	0.211802138386272
2.3030383839730666	0.2057621043154137
2.3040384006400108	0.199653187131853
2.3050384173069554	0.1935123687394075
2.3060384339739	0.18737595403519333
2.307038450640844	0.18127958829723229
2.3080384673077887	0.17525825991877056
2.3090384839747333	0.16934630040827642
2.3100385006416775	0.16357738438945096
2.311038517308622	0.15798190799791278
2.3120385339755662	0.15255762394590947
2.313038550642511	0.1472802509835098
2.3140385673094555	0.14212445989004027
2.3150385839763996	0.13706426456004375
2.316038600643344	0.1320730220032908
2.317038617310289	0.12712343234477516
2.318038633977233	0.12218753882472165
2.3190386506441776	0.11723672779857325
2.320038667311122	0.11224172873700036
2.3210386839780663	0.10717588599847022
2.322038700645011	0.10205202802460525
2.3230387173119555	0.0969092604885437
2.3240387339788997	0.09178653004313056
2.3250387506458443	0.08672212645643342
2.326038767312789	0.08175368261175152
2.327038783979733	0.07691817450760241
2.3280388006466777	0.07225192125773044
2.3290388173136223	0.06779058509110322
2.3300388339805664	0.06356917135191881
2.331038850647511	0.05961867562935237
2.3320388673144556	0.05592807187949893
2.3330388839814	0.05245781093057519
2.3340389006483444	0.049167166310504114
2.335038917315289	0.0460147546624286
2.336038933982233	0.042958535744718494
2.3370389506491778	0.03995581243096643
2.338038967316122	0.03696323070999478
2.3390389839830665	0.033936779685845984
2.340039000650011	0.03083198415764889
2.3410390173169553	0.02765182664735626
2.3420390339839	0.024405143881646288
2.3430390506508445	0.02109004447892168
2.3440390673177887	0.017709136350487233
2.3450390839847333	0.014268821950872848
2.346039100651678	0.01077929827783684
2.347039117318622	0.007254556872360191
2.3480391339855666	0.0037123838186503546
2.3490391506525112	0.00017435974413880853
2.3500391673194554	-0.0033341401805126875
2.3510391839864	-0.006790179946078034
2.3520392006533446	-0.0102447952458604
2.3530392173202888	-0.013798035689452388
2.3540392339872334	-0.01754716290322819
2.355039250654178	-0.021585643970341645
2.356039267321122	-0.026003151430720364
2.3570392839880667	-0.030885563281067823
2.3580393006550113	-0.03631496297485447
2.3590393173219555	-0.04236963942233363
2.3600393339889	-0.0491240869905291
2.3610393506558442	-0.056642720059516066
2.362039367322789	-0.06490730817879256
2.3630393839897335	-0.0738420678916607
2.3640394006566776	-0.0833663860933057
2.365039417323622	-0.09341927305847132
2.366039433990567	-0.10388748233253778
2.367039450657511	-0.11447645354775
2.3680394673244556	-0.12488695584285427
2.3690394839914	-0.13482498738794343
2.3700395006583443	-0.14400177538444128
2.371039517325289	-0.15213824980365534
2.3720395339922336	-0.1590170067795534
2.3730395506591777	-0.16446450275358035
2.3740395673261223	-0.16831317457502903
2.375039583993067	-0.1704006881245433
2.376039600660011	-0.17056993831410733
2.3770396173269557	-0.16866904908704744
2.3780396339939003	-0.1645513734180359
2.3790396506608444	-0.1580754933130861
2.380039667327789	-0.1491052198095553
2.3810396839947336	-0.1375070574010448
2.382039700661678	-0.12312057321641655
2.3830397173286224	-0.10576845760444911
2.384039733995567	-0.08527819564913848
2.385039750662511	-0.06148250146581203
2.3860397673294558	-0.03421931820117339
2.3870397839964	-0.0033318180332384713
2.3880398006633445	0.03133159782862436
2.389039817330289	0.0699470932039773
2.3900398339972333	0.11304490504023537
2.391039850664178	0.16039264617773222
2.3920398673311225	0.21147554828582812
2.3930398839980667	0.26576639203642877
2.3940399006650113	0.32272917892149056
2.395039917331956	0.3818192055903732
2.3960399339989	0.44248306384974573
2.3970399506658446	0.5041586406636361
2.3980399673327892	0.5662751181533214
2.3990399839997334	0.6282529735974932
2.400040000666678	0.6895039794321475
2.4010400173336226	0.7494302169351397
2.4020400340005668	0.8074124088016267
2.4030400506675114	0.862813807298136
2.404040067334456	0.9149887841686795
2.4050400840014	0.9632830170469477
2.4060401006683447	1.007033517566317
2.4070401173352893	1.045568601302042
2.4080401340022335	1.0782078789866962
2.409040150669178	1.1042622597769236
2.4100401673361227	1.1230339605396527
2.411040184003067	1.1338161471231878
2.4120402006700115	1.1358887753609954
2.4130402173369556	1.1285267871009383
2.4140402340039	1.1115889046987912
2.415040250670845	1.0859119500876848
2.416040267337789	1.0523947007196857
2.4170402840047336	1.0119068149183215
2.418040300671678	0.9652888318786601
2.4190403173386223	0.9133521716671976
2.420040334005567	0.8568791352219297
2.4210403506725116	0.7966257356296529
2.4220403673394557	0.7333556019604027
2.4230403840064003	0.6678288948407126
2.424040400673345	0.6007771801230373
2.425040417340289	0.5329029045312834
2.4260404340072337	0.46487939566093195
2.4270404506741783	0.3973508619788543
2.4280404673411224	0.3309323928234368
2.429040484008067	0.26620995840451944
2.4300405006750116	0.20374040980351
2.431040517341956	0.14404764985921842
2.4320405340089004	0.08757649884299289
2.433040550675845	0.034707631392803306
2.434040567342789	-0.014208120061285275
2.4350405840097338	-0.05884904221765996
2.436040600676678	-0.09903310729222269
2.4370406173436225	-0.13491641386077366
2.438040634010567	-0.16662932336220337
2.4390406506775113	-0.19431268603738816
2.440040667344456	-0.21812128398035985
2.4410406840114005	-0.2382199395233984
2.4420407006783447	-0.25473633945158924
2.4430407173452893	-0.2677761593873528
2.444040734012234	-0.2774582575197865
2.445040750679178	-0.2839154238910923
2.4460407673461226	-0.2872943803965856
2.4470407840130672	-0.2877557807846908
2.4480408006800114	-0.2854742106569487
2.449040817346956	-0.28063818746801106
2.4500408340139006	-0.2734501605256377
2.4510408506808448	-0.26413014550614405
2.4520408673477894	-0.25296005501222457
2.453040884014734	-0.240269627402016
2.454040900681678	-0.2264032463643214
2.4550409173486227	-0.21171922744107544
2.4560409340155673	-0.19658981802730646
2.4570409506825115	-0.18140119737116103
2.458040967349456	-0.16651114086295857
2.4590409840164007	-0.15207160366849604
2.460041000683345	-0.13819831166799715
2.4610410173502895	-0.12499723619042856
2.4620410340172336	-0.11252081024529
2.4630410506841782	-0.10078072914621489
2.464041067351123	-0.08977854201064003
2.465041084018067	-0.07950631610957253
2.4660411006850116	-0.06994663686758033
2.467041117351956	-0.06107260786280883
2.4680411340189004	-0.05284785082695508
2.469041150685845	-0.04522650564528557
2.4700411673527896	-0.03815323035662841
2.4710411840197337	-0.03156692932444334
2.4720412006866783	-0.025446789426896353
2.473041217353623	-0.019797961477449555
2.474041234020567	-0.014616875151617073
2.4750412506875117	-0.00989047827848147
2.4760412673544563	-0.005596236840685558
2.4770412840214004	-0.0017021349744392828
2.478041300688345	0.0018333250304851
2.4790413173552897	0.005061122730746034
2.480041334022234	0.008016769429364967
2.4810413506891784	0.010627693134265207
2.482041367356123	0.012896535984599156
2.483041384023067	0.014860448212498717
2.484041400690012	0.016556177390795054
2.4850414173569564	0.018019473081348453
2.4860414340239005	0.019285086835049065
2.487041450690845	0.020386772191814725
2.4880414673577893	0.021357284680595064
2.489041484024734	0.022228381819368107
2.4900415006916785	0.02303082311514272
2.4910415173586227	0.023794621258174102
2.4920415340255673	0.024552182460055732
2.493041550692512	0.025337349868243195
2.494041567359456	0.026183021887036247
2.4950415840264006	0.027121098909762616
2.4960416006933452	0.02818248331878178
2.4970416173602894	0.029397079485481505
2.498041634027234	0.030793793770280742
2.4990416506941786	0.032400534522624966
2.5000416673611228	0.03424421208099168
2.5010416840280674	0.03634857754320916
2.502041700695012	0.03870703612696055
2.503041717361956	0.0412908410163432
2.5040417340289007	0.04406978018521659
2.5050417506958453	0.04701263440382154
2.5060417673627895	0.05008719702842405
2.507041784029734	0.05327009560815193
2.5080418006966787	0.05653971882274603
2.509041817363623	0.059869412911417494
2.5100418340305675	0.06323238480544392
2.5110418506975116	0.06660352690812356
2.5120418673644562	0.06998251417856195
2.513041884031401	0.07338691739578189
2.514041900698345	0.07683457014042364
2.5150419173652896	0.08034316668518846
2.516041934032234	0.08393026199484728
2.5170419506991784	0.08761327172623473
2.518041967366123	0.09140947222825244
2.5190419840330676	0.09533600054186224
2.5200420007000117	0.09940985440009585
2.5210420173669563	0.10364617933548739
2.522042034033901	0.10803645278419198
2.523042050700845	0.11255491823082314
2.5240420673677897	0.11717529509772523
2.5250420840347343	0.12187116349930638
2.5260421007016785	0.12661596424204136
2.527042117368623	0.1313829988244647
2.5280421340355677	0.136145429437182
2.529042150702512	0.14087627896286203
2.5300421673694564	0.14554843097624084
2.531042184036401	0.15013655390605174
2.532042200703345	0.15464176058286044
2.53304221737029	0.15908441540024512
2.5340422340372344	0.16348518400034254
2.5350422507041785	0.16786459271734805
2.536042267371123	0.172243028577529
2.5370422840380673	0.17664073929921573
2.538042300705012	0.1810778332928061
2.5390423173719565	0.18557427966075662
2.5400423340389007	0.19014990819759525
2.5410423507058453	0.194823774872475
2.54204236737279	0.19960597921773157
2.543042384039734	0.20450002447489277
2.5440424007066786	0.2095091264972222
2.5450424173736232	0.2146363618300466
2.5460424340405674	0.21988466771076023
2.547042450707512	0.22525684206881508
2.5480424673744566	0.230761132403902
2.5490424840414008	0.23640788255976838
2.5500425007083454	0.2421971480961862
2.55104251737529	0.2481276155906883
2.552042534042234	0.25417951682400286
2.5530425507091787	0.26031954558178133
2.5540425673761233	0.266514194825123
2.5550425840430675	0.27273007273561245
2.556042600710012	0.2789339027153342
2.5570426173769567	0.28509252338686236
2.558042634043901	0.2911728885932663
2.5590426507108455	0.297142067398101
2.5600426673777896	0.3029672440854201
2.5610426840447342	0.30861750147769185
2.562042700711679	0.31408710720978483
2.563042717378623	0.3193889491580632
2.5640427340455676	0.32453646276679543
2.565042750712512	0.32954319870074966
2.5660427673794564	0.3344228228451842
2.567042784046401	0.3391891163058518
2.5680428007133456	0.3438559754089912
2.5690428173802897	0.3484374117013399
2.5700428340472343	0.35294755195012634
2.571042850714179	0.3573993093063431
2.572042867381123	0.3617869226343417
2.5730428840480677	0.36609082160659495
2.5740429007150123	0.3702912227694616
2.5750429173819565	0.37436845788979506
2.576042934048901	0.37830297395493545
2.5770429507158457	0.3820753331727214
2.57804296738279	0.38566621297148146
2.5790429840497344	0.3890564060000385
2.580043000716679	0.3922268201277035
2.581043017383623	0.39515982745601164
2.582043034050568	0.397857101554435
2.5830430507175124	0.40033470601839466
2.5840430673844565	0.4026091593840867
2.585043084051401	0.4046970954082043
2.5860431007183453	0.406615263067931
2.58704311738529	0.4083805265609446
2.5880431340522345	0.4100098653054117
2.5890431507191787	0.4115203739399951
2.5900431673861233	0.41292926232384813
2.591043184053068	0.4142525459131736
2.592043200720012	0.41548762025851904
2.5930432173869566	0.41661800170939195
2.5940432340539012	0.4176269857228142
2.5950432507208454	0.41849798297630103
2.59604326738779	0.41921451936785925
2.5970432840547346	0.41976023601598844
2.5980433007216788	0.42011888925968105
2.5990433173886234	0.42027435065842106
2.600043334055568	0.4202106069921865
2.601043350722512	0.41991233863127914
2.6020433673894567	0.4193672208744578
2.6030433840564013	0.41855395124877265
2.6040434007233455	0.41747588844306294
2.60504341739029	0.41613927146571106
2.6060434340572347	0.4145503690050985
2.607043450724179	0.41271545241533164
2.6080434673911235	0.41064075804793787
2.609043484058068	0.40833248663712307
2.6100435007250122	0.40579679623109033
2.611043517391957	0.40304023487914437
2.612043534058901	0.4000756283271135
2.6130435507258456	0.3969205206452564
2.61404356739279	0.39359253669297645
2.6150435840597344	0.3901092658452611
2.616043600726679	0.3864882619926884
2.6170436173936236	0.38274704354141736
2.6180436340605677	0.37890309341319484
2.6190436507275123	0.37497385904535185
2.620043667394457	0.3709767523908099
2.621043684061401	0.36692830134140714
2.6220437007283457	0.36283264335133175
2.6230437173952903	0.3586845415909783
2.6240437340622345	0.3544784932518944
2.625043750729179	0.3502089600412078
2.6260437673961237	0.34587036818163386
2.627043784063068	0.34145710841147253
2.6280438007300124	0.33696353598461487
2.629043817396957	0.3323839706705323
2.630043834063901	0.3277126967542839
2.631043850730846	0.32294410924661315
2.6320438673977904	0.3180747090101777
2.6330438840647346	0.3131025864146597
2.634043900731679	0.30802583681546153
2.6350439173986233	0.3028425200835693
2.636043934065568	0.2975506606055624
2.6370439507325125	0.29214824728359845
2.6380439673994567	0.28663323353542386
2.6390439840664013	0.28100353729436844
2.640044000733346	0.2752570410093547
2.64104401740029	0.26939252485140974
2.6420440340672346	0.2634224817836818
2.6430440507341793	0.25736984371122623
2.6440440674011234	0.2512577702705646
2.645044084068068	0.24510938561379617
2.6460441007350126	0.23894777840860867
2.6470441174019568	0.23279600183827376
2.6480441340689014	0.22667707360165612
2.649044150735846	0.2206139759131986
2.65004416740279	0.21462965550293267
2.6510441840697347	0.2087455223619544
2.6520442007366793	0.2029607028757848
2.6530442174036235	0.19725727064517162
2.654044234070568	0.19161683231205212
2.6550442507375127	0.18602095903394597
2.656044267404457	0.18045118648396724
2.6570442840714015	0.17488901485080754
2.658044300738346	0.16931590883874723
2.6590443174052902	0.16371329766765025
2.660044334072235	0.15806257507297375
2.661044350739179	0.15234672857911646
2.6620443674061236	0.1465729990824857
2.663044384073068	0.14076724373177038
2.6640444007400124	0.13495576133648565
2.665044417406957	0.12916481522172424
2.6660444340739016	0.12342063322816754
2.6670444507408457	0.11774940771208073
2.6680444674077903	0.11217729554532191
2.669044484074735	0.10673041811532767
2.670044500741679	0.10143486132512286
2.6710445174086237	0.09631528280567286
2.6720445340755683	0.09137541762375886
2.6730445507425125	0.0866028624513687
2.674044567409457	0.08198476286494882
2.6750445840764017	0.0775082289565298
2.676044600743346	0.0731603353337348
2.6770446174102904	0.06892812111976589
2.678044634077235	0.06479858995341314
2.679044650744179	0.0607586066123878
2.680044667411124	0.0567927241010209
2.6810446840780684	0.05288428052781583
2.6820447007450126	0.049025291208407144
2.683044717411957	0.04521447558390505
2.6840447340789018	0.041450728430727515
2.685044750745846	0.03773294531457231
2.6860447674127905	0.03406002259042443
2.6870447840797347	0.030430857402552493
2.6880448007466793	0.026844347684514984
2.689044817413624	0.02329939215915095
2.690044834080568	0.019794890338586477
2.6910448507475127	0.01633045098403799
2.6920448674144573	0.012916435527078511
2.6930448840814014	0.009571561039028415
2.694044900748346	0.006314764852213201
2.6950449174152906	0.0031649850882450948
2.696044934082235	0.0001411606580199341
2.6970449507491794	-0.0027377687382772846
2.698044967416124	-0.005452862611180166
2.699044984083068	-0.007985179681935274
2.7000450007500127	-0.010315777882505685
2.7010450174169574	-0.012427676710983462
2.7020450340839015	-0.014333855005921988
2.703045050750846	-0.016070663634123218
2.7040450674177907	-0.017675072052631528
2.705045084084735	-0.019184052007476464
2.7060451007516795	-0.02063463417314768
2.707045117418624	-0.022063902576285866
2.7080451340855682	-0.023508942413898677
2.709045150752513	-0.025006838093706452
2.710045167419457	-0.02659467323414664
2.7110451840864016	-0.02830687783324049
2.712045200753346	-0.030137135737678636
2.7130452174202904	-0.03204721769116505
2.714045234087235	-0.03399804055780386
2.7150452507541796	-0.03595052041241321
2.7160452674211237	-0.03786557254052664
2.7170452840880683	-0.0397041114383906
2.718045300755013	-0.04142705081296789
2.719045317421957	-0.0429953035819363
2.7200453340889017	-0.044369781873687876
2.7210453507558463	-0.04551415235049634
2.7220453674227905	-0.04643465537836275
2.723045384089735	-0.047171007178295636
2.7240454007566797	-0.04776382590555829
2.725045417423624	-0.04825372892612778
2.7260454340905684	-0.04868133281669716
2.727045450757513	-0.049087253364673705
2.728045467424457	-0.049512105568180136
2.729045484091402	-0.049996503636052105
2.7300455007583464	-0.050581060987841785
2.7310455174252906	-0.05130366068083641
2.732045534092235	-0.052159753729037577
2.7330455507591798	-0.05311129456781443
2.734045567426124	-0.05411932574647691
2.7350455840930685	-0.05514488902505005
2.7360456007600127	-0.05614902537427345
2.7370456174269573	-0.05709277497560058
2.738045634093902	-0.057937177221200654
2.739045650760846	-0.05864327071395701
2.7400456674277907	-0.05917209326746875
2.7410456840947353	-0.059487199230535456
2.7420457007616794	-0.05959151080734316
2.743045717428624	-0.05951915025609568
2.7440457340955686	-0.059305095072794536
2.745045750762513	-0.05898432196415561
2.7460457674294574	-0.05859180684760924
2.747045784096402	-0.0581625248513012
2.748045800763346	-0.057731450314091715
2.7490458174302908	-0.05733355678555567
2.7500458340972354	-0.05700381702598302
2.7510458507641795	-0.056775264237979024
2.752045867431124	-0.056650426382385814
2.7530458840980687	-0.056607559487680176
2.754045900765013	-0.05662424714177987
2.7550459174319575	-0.056678072143317125
2.756045934098902	-0.05674661650163924
2.7570459507658462	-0.056807461436807906
2.758045967432791	-0.05683818737959968
2.7590459840997354	-0.05682043937205895
2.7600460007666796	-0.05673423844283324
2.761046017433624	-0.0565562760082092
2.7620460341005684	-0.0562890131945434
2.763046050767513	-0.05595549168230636
2.7640460674344576	-0.05557930681213825
2.7650460841014017	-0.05518403256981639
2.7660461007683463	-0.05479322158625648
2.767046117435291	-0.05443040513751082
2.768046134102235	-0.054119093144770355
2.7690461507691797	-0.05388277417436311
2.7700461674361243	-0.05374491543775503
2.7710461841030685	-0.05372724907160195
2.772046200770013	-0.053824193114313044
2.7730462174369577	-0.05400825679298141
2.774046234103902	-0.054251311851828694
2.7750462507708464	-0.054525208680214265
2.776046267437791	-0.05480177631263515
2.777046284104735	-0.055052822428725785
2.77804630077168	-0.055250133353258964
2.7790463174386244	-0.055365474056144295
2.7800463341055686	-0.05537058815242939
2.781046350772513	-0.05523834675266355
2.7820463674394578	-0.05496000796361669
2.783046384106402	-0.0545416293828461
2.7840464007733465	-0.05398966801695919
2.7850464174402907	-0.05331055951770157
2.7860464341072353	-0.05251071818195628
2.78704645077418	-0.051596536951743946
2.788046467441124	-0.05057438741422296
2.7890464841080687	-0.04945061980168923
2.7900465007750133	-0.048231562991576424
2.7910465174419574	-0.046923937172438965
2.792046534108902	-0.0455410939137267
2.7930465507758466	-0.04410174077621989
2.794046567442791	-0.0426247179263581
2.7950465841097354	-0.04112884417572006
2.79604660077668	-0.03963291698102146
2.797046617443624	-0.03815571244411667
2.7980466341105688	-0.03671598531199681
2.7990466507775134	-0.035332468976790286
2.8000466674444575	-0.03402387547576353
2.801046684111402	-0.03280732622538401
2.8020467007783467	-0.031674467379068726
2.803046717445291	-0.030596268437369324
2.8040467341122355	-0.02954308114975153
2.80504675077918	-0.028485234990794674
2.8060467674461242	-0.02739299568151313
2.807046784113069	-0.026236548333226823
2.8080468007800135	-0.02498605229228382
2.8090468174469576	-0.023611645550171968
2.810046834113902	-0.022083443902332515
2.8110468507808464	-0.020372855796702248
2.812046867447791	-0.018472858097195545
2.8130468841147356	-0.016393999596298017
2.8140469007816797	-0.014147320003751379
2.8150469174486243	-0.01174383767443582
2.816046934115569	-0.009194549608369181
2.817046950782513	-0.006510431450705654
2.8180469674494577	-0.0037024374917405817
2.8190469841164023	-0.0007815006669037797
2.8200470007833465	0.0022414674432364437
2.821047017450291	0.005356372089032316
2.8220470341172357	0.008566202074056095
2.82304705078418	0.011884650987864665
2.8240470674511244	0.015325747462343404
2.825047084118069	0.0189035414842414
2.826047100785013	0.022632104395165213
2.827047117451958	0.026525528891588747
2.8280471341189024	0.030597929024846572
2.8290471507858466	0.03486344020113747
2.830047167452791	0.03933621918151698
2.8310471841197358	0.04402928549697509
2.83204720078668	0.04893176748684226
2.8330472174536245	0.054014603933534716
2.834047234120569	0.05924928618509079
2.8350472507875133	0.06460719688078259
2.836047267454458	0.07005960995110709
2.837047284121402	0.07557769061779158
2.8380473007883467	0.08113249539378325
2.8390473174552913	0.0866949720832636
2.8400473341222354	0.09223595978163932
2.84104735078918	0.09772728068515812
2.8420473674561246	0.10315879894010717
2.843047384123069	0.10853523244408912
2.8440474007900134	0.11386163708844275
2.845047417456958	0.1191429600557368
2.846047434123902	0.12438403981975932
2.8470474507908468	0.12958960614553383
2.8480474674577914	0.13476428008930808
2.8490474841247355	0.13991257399855977
2.85004750079168	0.14503889151198723
2.8510475174586247	0.1501468573947295
2.852047534125569	0.1552287774669754
2.8530475507925135	0.16026757129774669
2.854047567459458	0.16524577046535124
2.8550475841264022	0.17014579783933131
2.856047600793347	0.17494996758045359
2.8570476174602915	0.17964048514071476
2.8580476341272356	0.18419944726333215
2.85904765079418	0.18860884198275718
2.8600476674611244	0.19285054862466613
2.861047684128069	0.19690669273867517
2.8620477007950136	0.20076526527618377
2.8630477174619577	0.2044191121017646
2.8640477341289023	0.20786112102842838
2.865047750795847	0.2110840711604142
2.866047767462791	0.2140806328931844
2.8670477841297357	0.21684336791343295
2.8680478007966803	0.21936472919907946
2.8690478174636245	0.22163706101927216
2.870047834130569	0.22365259893438358
2.8710478507975137	0.22540415775243944
2.872047867464458	0.22688130341804302
2.8730478841314024	0.22806647866548804
2.874047900798347	0.22894224509607897
2.875047917465291	0.22949166594231563
2.876047934132236	0.22969830606789193
2.8770479507991804	0.22954623196769597
2.8780479674661246	0.22902001176781064
2.879047984133069	0.2281047152255129
2.8800480008000138	0.2267859137292741
2.881048017466958	0.22505163048726437
2.8820480341339025	0.2229236265385768
2.883048050800847	0.2204519969355876
2.8840480674677913	0.21768819710876955
2.885048084134736	0.21468418411978815
2.88604810080168	0.21149241666150675
2.8870481174686247	0.20816585505798071
2.8880481341355693	0.20475796126445991
2.8890481508025134	0.201322698867387
2.890048167469458	0.19791453308440438
2.8910481841364026	0.19458469982902296
2.892048200803347	0.19132095343354433
2.8930482174702914	0.18805775864137156
2.894048234137236	0.18472840854698103
2.89504825080418	0.18126669787603633
2.8960482674711248	0.17760692298540015
2.8970482841380694	0.17368388186312483
2.8980483008050135	0.1694328741284644
2.899048317471958	0.164789701031861
2.9000483341389027	0.15969066545495292
2.901048350805847	0.15407715604389047
2.9020483674727915	0.14797017203995938
2.903048384139736	0.14145798365731302
2.9040484008066803	0.13463145668044313
2.905048417473625	0.12758195840396472
2.9060484341405695	0.1204013342396285
2.9070484508075136	0.11318187978699137
2.908048467474458	0.1060163854715106
2.909048484141403	0.09899814334983509
2.910048500808347	0.09221998904457906
2.9110485174752916	0.08572762615420373
2.9120485341422357	0.07952628978205084
2.9130485508091803	0.0735922425267448
2.914048567476125	0.06789856415510333
2.915048584143069	0.06241682481189827
2.9160486008100137	0.057117085019866676
2.9170486174769583	0.05196789567970486
2.9180486341439025	0.04693629807007925
2.919048650810847	0.04198782384761084
2.9200486674777917	0.03708649504688528
2.921048684144736	0.032196954078424184
2.9220487008116804	0.027319556429361118
2.923048717478625	0.022484812308287014
2.924048734145569	0.017722731505879816
2.925048750812514	0.0130618141907776
2.9260487674794584	0.008529050909586541
2.9270487841464026	0.004149922586869463
2.928048800813347	-5.1599474847314076e-05
2.9290488174802918	-0.004053053595076244
2.930048834147236	-0.007833487715363022
2.9310488508141805	-0.011374867381372843
2.932048867481125	-0.014685428634087581
2.9330488841480693	-0.017796063407531707
2.934048900815014	-0.020739852671601625
2.935048917481958	-0.02355138701823609
2.9360489341489027	-0.026266766661410132
2.9370489508158473	-0.02892360143713797
2.9380489674827914	-0.031561010803467585
2.939048984149736	-0.03421962384048862
2.9400490008166806	-0.03694157925032719
2.941049017483625	-0.03976934608342189
2.9420490341505694	-0.04272603263063296
2.943049050817514	-0.04581836298076058
2.944049067484458	-0.04905399130455375
2.9450490841514028	-0.052442081394798994
2.9460491008183474	-0.05599330666632257
2.9470491174852915	-0.059719850155983724
2.948049134152236	-0.06363540452268385
2.9490491508191807	-0.06775517204736091
2.950049167486125	-0.07208463808187535
2.9510491841530695	-0.07664956639829425
2.952049200820014	-0.08151766347299201
2.9530492174869583	-0.08675885619262244
2.954049234153903	-0.09242859566141043
2.9550492508208475	-0.09856730224411303
2.9560492674877916	-0.10520036556603567
2.9570492841547362	-0.11233814451302179
2.958049300821681	-0.11997596723145865
2.959049317488625	-0.12809413112826348
2.9600493341555696	-0.13665790287090424
2.9610493508225137	-0.14561634531485726
2.9620493674894584	-0.15488246465619068
2.963049384156403	-0.16433606710645338
2.964049400823347	-0.17384133022197268
2.9650494174902917	-0.18324740081961224
2.9660494341572363	-0.19238839497678006
2.9670494508241805	-0.20108339803141273
2.968049467491125	-0.20913646458199917
2.9690494841580697	-0.21633661848756475
2.970049500825014	-0.22245785286767764
2.9710495174919584	-0.22726072685383583
2.972049534158903	-0.2305195716562447
2.973049550825847	-0.23201867514372126
2.974049567492792	-0.23152812327940894
2.9750495841597364	-0.22880297128699215
2.9760496008266806	-0.223590854322047
2.977049617493625	-0.21612427356795738
2.97804963416057	-0.20633096430789052
2.979049650827514	-0.1938402156311592
2.9800496674944585	-0.1783420248581897
2.981049684161403	-0.15958431224034944
2.9820497008283473	-0.13732514193846748
2.983049717495292	-0.11133924767644315
2.9840497341622365	-0.0814605990563775
2.9850497508291807	-0.04758387391150663
2.9860497674961253	-0.009664458306173468
2.9870497841630694	0.03228155346409965
2.988049800830014	0.07817735887271686
2.9890498174969586	0.12788544716194022
2.990049834163903	0.18120759934293063
2.9910498508308474	0.2378805651332443
2.992049867497792	0.2975014009154363
2.993049884164736	0.3595373928827632
2.9940499008316808	0.42339279178458855
2.9950499174986254	0.48841114013906733
2.9960499341655695	0.5538752722333125
2.997049950832514	0.619007314123283
2.9980499674994587	0.6829686836338423
2.999049984166403	0.7448600903586419
3.0000500008333475	0.8037215356602929
3.001050017500292	0.858537305659218
3.0020500341672363	0.9083227909681367
3.003050050834181	0.9518179198251433
3.0040500675011255	0.9881381103791977
3.0050500841680696	1.017106368969603
3.0060501008350142	1.0386125416410665
