Time	Amplitude
0.0	1.074877309190897
0.0010000166669444492	1.0703052172620715
0.0020000333338888983	1.0597621963855377
0.0030000500008333475	1.043219381630614
0.004000066667777797	1.0207916561383996
0.005000083334722245	0.9929384919521099
0.006000100001666695	0.9601224908833733
0.0070001166686111446	0.922807189034097
0.008000133335555593	0.8814570567964668
0.009000150002500042	0.8365374988529464
0.01000016666944449	0.7885148541762783
0.011000183336388941	0.7378472654475506
0.01200020000333339	0.6849571225618456
0.013000216670277839	0.630258536562692
0.014000233337222289	0.5741665527838683
0.015000250004166738	0.5170971508494283
0.016000266671111187	0.4594672446737066
0.017000283338055637	0.4016946824613146
0.018000300005000084	0.344198246707143
0.019000316671944534	0.28739765419636065
0.02000033333888898	0.23171355600441393
0.021000350005833432	0.17757380622149715
0.022000366672777882	0.12537490714168165
0.02300038333972233	0.07530845425835446
0.02400040000666678	0.027524814579888916
0.02500041667361123	-0.01784073366046529
0.026000433340555677	-0.06066858631405469
0.027000450007500128	-0.10085481331682232
0.028000466674444578	-0.13831115868930846
0.029000483341389025	-0.17296504053664927
0.030000500008333476	-0.2047595510485776
0.031000516675277923	-0.23365676943422614
0.03200053334222237	-0.25964788087040064
0.033000550009166824	-0.28274314823576735
0.034000566676111274	-0.30296850849389567
0.03500058334305572	-0.32036557269295113
0.03600060001000017	-0.334991625965696
0.03700061667694462	-0.3469196275294891
0.03800063334388907	-0.356238210686286
0.03900065001083352	-0.3630516828226385
0.04000066667777796	-0.367480025409695
0.04100068334472241	-0.36965471067400085
0.042000700011666864	-0.369705847625504
0.043000716678611314	-0.3677748826618592
0.044000733345555765	-0.36401893626439735
0.045000750012500215	-0.3586108029990456
0.04600076667944466	-0.35173895151632845
0.04700078334638911	-0.34360752455136595
0.04800080001333356	-0.3344326017454595
0.04900081668027801	-0.32434210453444323
0.05000083334722246	-0.31345108994997223
0.051000850014166904	-0.301895755840293
0.052000866681111355	-0.289826441694547
0.053000883348055805	-0.27739053098567956
0.054000900015000255	-0.26472657770027347
0.055000916681944706	-0.2519643063361258
0.056000933348889156	-0.23922461190224759
0.0570009500158336	-0.22661955991886337
0.05800096668277805	-0.21425238641741176
0.0590009833497225	-0.20221749794054525
0.06000100001666695	-0.1906004715421301
0.0610010166836114	-0.17947598665107573
0.062001033350555845	-0.16890139421237085
0.0630010500175003	-0.1589230327797006
0.06400106668444475	-0.1495784114164139
0.0650010833513892	-0.14089620969707375
0.06600110001833365	-0.13289627770745682
0.0670011166852781	-0.12558963604455373
0.06800113335222255	-0.11897847581656891
0.069001150019167	-0.11305615864292079
0.07000116668611144	-0.10780721665424163
0.07100118335305589	-0.10320552027857416
0.07200120002000034	-0.0992085470115026
0.07300121668694479	-0.0957629934866974
0.07400123335388924	-0.09280672684685264
0.07500125002083369	-0.09026878474587623
0.07600126668777814	-0.08806937534888994
0.07700128335472259	-0.08611987733222923
0.07800130002166704	-0.08432376204492387
0.07900131668861149	-0.0826805428266655
0.08000133335555593	-0.08121243234808971
0.08100135002250038	-0.07989406250990504
0.08200136668944483	-0.07869449920101158
0.08300138335638928	-0.07758185536867301
0.08400140002333373	-0.07652490478878597
0.08500141669027818	-0.0754930820685722
0.08600143335722263	-0.07445648264657817
0.08700145002416708	-0.07338586279267538
0.08800146669111153	-0.07225263960806022
0.08900148335805598	-0.07102889102525392
0.09000150002500043	-0.06968735580810276
0.09100151669194487	-0.06821100266258029
0.09200153335888932	-0.06662332002505171
0.09300155002583377	-0.06495883372152207
0.09400156669277822	-0.06325273043385748
0.09500158335972267	-0.06154085767524866
0.09600160002666712	-0.05985972379021155
0.09700161669361157	-0.05824649795458697
0.09800163336055602	-0.056739010175540436
0.09900165002750047	-0.05537575129156252
0.10000166669444492	-0.05419587297246892
0.10100168336138937	-0.053223566588383495
0.10200170002833381	-0.05241827968795338
0.10300171669527826	-0.051722999939192556
0.10400173336222271	-0.05108137564850472
0.10500175002916716	-0.05043771595361877
0.10600176669611161	-0.049736990823588206
0.10700178336305606	-0.04892483105879164
0.10800180003000051	-0.047947528290932635
0.10900181669694496	-0.046752034983039564
0.11000183336388941	-0.045285964429465794
0.11100185003083386	-0.04351534926911204
0.11200186669777831	-0.0414815228911823
0.11300188336472275	-0.0392377229217773
0.1140019000316672	-0.036831652808416514
0.11500191669861165	-0.03431883336959635
0.1160019333655561	-0.031754848489468954
0.11700195003250055	-0.029195324252998808
0.118001966699445	-0.026695928945962573
0.11900198336638945	-0.024312373054949637
0.1200020000333339	-0.022100409267361204
0.12100201670027835	-0.020099788411748958
0.1220020333672228	-0.018282565186790962
0.12300205003416724	-0.01660296250850641
0.12400206670111169	-0.015015245394866835
0.12500208336805615	-0.0134737210646564
0.1260021000350006	-0.011932738937471373
0.12700211670194506	-0.010346690633720434
0.1280021333688895	-0.008670009974624717
0.12900215003583393	-0.00685717298221737
0.1300021667027784	-0.004862697879344102
0.13100218336972283	-0.0026530676994016974
0.1320022000366673	-0.0002453723723991625
0.13300221670361173	0.0023298534486135714
0.1340022333705562	0.005042032815942151
0.13500225003750063	0.007860546581079549
0.1360022667044451	0.010754733394706562
0.13700228337138953	0.013693889706691637
0.138002300038334	0.01664726976609115
0.13900231670527843	0.019584085621148654
0.14000233337222287	0.02247350711929577
0.14100235003916733	0.025292121330791117
0.14200236670611177	0.028048251917517388
0.14300238337305624	0.030758641471676722
0.14400240004000067	0.03343999045831993
0.14500241670694514	0.036108957141685175
0.14600243337388957	0.03878215758519864
0.14700245004083404	0.041476165651474044
0.14800246670777847	0.044207513002312744
0.14900248337472294	0.04699268909870384
0.15000250004166737	0.049848141200824175
0.1510025167086118	0.05278876459876665
0.15200253337555628	0.0558229513934125
0.1530025500425007	0.058957323493765194
0.15400256670944518	0.062198460589593926
0.1550025833763896	0.06555290016985585
0.15600260004333408	0.0690271375226957
0.15700261671027851	0.07262762573544566
0.15800263337722298	0.076360775694626
0.15900265004416742	0.08023295608594433
0.16000266671111185	0.08425049339429623
0.16100268337805632	0.08841376340196598
0.16200270004500075	0.0926977003615142
0.16300271671194522	0.09707037268882963
0.16400273337888965	0.1015076152151558
0.16500275004583412	0.10598783497523337
0.16600276671277855	0.11047644716807752
0.16700278337972302	0.11493875426025196
0.16800280004666746	0.11934008580900779
0.16900281671361192	0.12364579846228431
0.17000283338055636	0.12782127595870788
0.1710028500475008	0.13184439623975544
0.17200286671444526	0.13574689967899375
0.1730028833813897	0.1395750819367062
0.17400290004833416	0.14337526598735673
0.1750029167152786	0.14719380189609677
0.17600293338222306	0.15107706681876582
0.1770029500491675	0.15507146500189095
0.17800296671611196	0.15922342778268728
0.1790029833830564	0.16357941358905745
0.18000300005000086	0.1681859079395918
0.1810030167169453	0.1730742804637619
0.18200303338388973	0.17821024231634688
0.1830030500508342	0.18354172582736505
0.18400306671777863	0.1890166900937889
0.1850030833847231	0.1945831213032793
0.18600310005166754	0.20018903273418429
0.187003116718612	0.2057824647555402
0.18800313338555644	0.21131148482707054
0.1890031500525009	0.21672418749918707
0.19000316671944534	0.22196869441298892
0.1910031833863898	0.22700539831671884
0.19200320005333424	0.23184806970639338
0.19300321672027868	0.2365250334312465
0.19400323338722314	0.24106464174048134
0.19500325005416758	0.2454952739739884
0.19600326672111204	0.24984533656234667
0.19700328338805648	0.254143263026822
0.19800330005500094	0.2584175139793688
0.19900331672194538	0.26269657712262867
0.20000333338888984	0.2670089672499313
0.20100335005583428	0.271375097430684
0.20200336672277874	0.27577980016158316
0.20300338338972318	0.2801981819355971
0.20400340005666762	0.2846053761121185
0.20500341672361208	0.2889765431412277
0.20600343339055652	0.29328687056369235
0.20700345005750098	0.2975115730109691
0.20800346672444542	0.3016258922052007
0.20900348339138988	0.3056050969592187
0.21000350005833432	0.3094244831765427
0.21100351672527878	0.3130661304227005
0.21200353339222322	0.3165418522759052
0.21300355005916768	0.3198716514575513
0.21400356672611212	0.3230755580123066
0.21500358339305656	0.3261736290755267
0.21600360006000102	0.32918594887325553
0.21700361672694546	0.33213262872222393
0.21800363339388992	0.33503380702985097
0.21900365006083436	0.33790964929424366
0.22000366672777882	0.34078034810419633
0.22100368339472326	0.34366076036521975
0.22200370006166772	0.3465420847693153
0.22300371672861216	0.34940901024617144
0.22400373339555663	0.3522462526029203
0.22500375006250106	0.3550385547373825
0.2260037667294455	0.35777068663806594
0.22700378339638996	0.36042744538416654
0.2280038000633344	0.36299365514556764
0.22900381673027886	0.36545416718284046
0.2300038333972233	0.3677938598472442
0.23100385006416777	0.3699998045220144
0.2320038667311122	0.3720687090457016
0.23300388339805667	0.3739999723330967
0.2340039000650011	0.3757930204885502
0.23500391673194554	0.3774473067071003
0.23600393339889	0.3789623112744724
0.23700395006583444	0.38033754156708005
0.2380039667327789	0.3815725320520253
0.23900398339972334	0.38266684428709635
0.2400040000666678	0.38362006692077083
0.24100401673361224	0.3844320078708851
0.2420040334005567	0.3851033586157542
0.24300405006750114	0.3856350762286068
0.2440040667344456	0.38602814488337306
0.24500408340139004	0.3862835758446707
0.24600410006833448	0.38640240746780585
0.24700411673527894	0.3863857051987715
0.24800413340222338	0.38623456157424924
0.24900415006916785	0.3859500962216081
0.2500041667361123	0.38553345585890464
0.25100418340305675	0.38498447689490606
0.2520042000700012	0.38429334419090644
0.2530042167369456	0.38344125024269293
0.2540042334038901	0.382424269859745
0.25500425007083455	0.38123976874878707
0.256004266737779	0.37988508090623313
0.2570042834047234	0.37835750861818673
0.25800430007166786	0.37665432246044056
0.25900431673861235	0.374772761298477
0.2600043334055568	0.3727100322874675
0.2610043500725012	0.3704650578635658
0.26200436673944566	0.3680445850235339
0.26300438340639015	0.36545753651085305
0.2640044000733346	0.36271280347552026
0.265004416740279	0.359819245357222
0.26600443340722346	0.3567856898853339
0.2670044500741679	0.3536209330789215
0.2680044667411124	0.35033373924673905
0.2690044834080568	0.3469328409872309
0.27000450007500126	0.34342693918853046
0.2710045167419457	0.33982495146847613
0.2720045334088902	0.33613688603021874
0.27300455007583463	0.33237303612488195
0.27400456674277907	0.3285436633119715
0.2750045834097235	0.3246589974406826
0.276004600076668	0.3207292366498998
0.27700461674361243	0.31676454736819726
0.27800463341055687	0.3127750643138384
0.2790046500775013	0.30877089049477646
0.28000466674444574	0.30476209720865327
0.28100468341139023	0.3007577878688507
0.28200470007833467	0.2967627860005409
0.2830047167452791	0.29278067902723387
0.28400473341222354	0.2888150225832002
0.28500475007916803	0.28486934059240004
0.28600476674611247	0.28094712526848337
0.2870047834130569	0.27705183711478876
0.28800480008000134	0.273186904924345
0.2890048167469458	0.26935572577987016
0.2900048334138903	0.26556166505377116
0.2910048500808347	0.2618029379825377
0.29200486674777915	0.25805439655342544
0.2930048834147236	0.25428421670349627
0.2940049000816681	0.2504605421778013
0.2950049167486125	0.24655148501108168
0.29600493341555695	0.2425251255277676
0.2970049500825014	0.23834951234197885
0.2980049667494459	0.23399266235752447
0.2990049834163903	0.22942256076790332
0.30000500008333475	0.22460716105630316
0.3010050167502792	0.21952617028839522
0.3020050334172236	0.21421322173942833
0.3030050500841681	0.20871734610853818
0.30400506675111255	0.20308754326682177
0.305005083418057	0.1973727813750659
0.3060051000850014	0.1916219968837463
0.3070051167519459	0.18588409453302857
0.30800513341889035	0.1802079473527672
0.3090051500858348	0.17464239666250703
0.3100051667527792	0.1692362520714814
0.31100518341972366	0.16402860308444256
0.31200520008666816	0.15901394373636413
0.3130052167536126	0.15417393148267752
0.31400523342055703	0.14949019094421975
0.31500525008750146	0.14494431503151606
0.31600526675444596	0.14051786494478166
0.3170052834213904	0.13619237017392138
0.31800530008833483	0.13194932849852928
0.31900531675527927	0.1277702059878886
0.3200053334222237	0.1236364370009726
0.3210053500891682	0.11953077578010415
0.32200536675611263	0.11544218994271736
0.32300538342305707	0.11136141788660094
0.3240054000900015	0.10727916647256891
0.325005416756946	0.10318611085112385
0.32600543342389043	0.09907289446245833
0.32700545009083487	0.09493012903645456
0.3280054667577793	0.09074839459268347
0.3290054834247238	0.08651823944040607
0.33000550009166824	0.0822301801785722
0.3310055167586127	0.07788032516653813
0.3320055334255571	0.07349085218733489
0.33300555009250155	0.06909147450236645
0.33400556675944604	0.06471187445740662
0.3350055834263905	0.06038170268791835
0.3360056000933349	0.056130578119054024
0.33700561676027935	0.05198808796565542
0.33800563342722384	0.04798378773225381
0.3390056500941683	0.04414720121306994
0.3400056667611127	0.04050782049201354
0.34100568342805715	0.037085760052524806
0.3420057000950016	0.03385752752551349
0.3430057167619461	0.030786909061297336
0.3440057334288905	0.027837657648569283
0.34500575009583495	0.024973494565712375
0.3460057667627794	0.022158109380798166
0.3470057834297239	0.01935515995158839
0.3480058000966683	0.01652827242553385
0.34900581676361275	0.013641041239774849
0.3500058334305572	0.010657029121141078
0.3510058500975017	0.007552457693703411
0.3520058667644461	0.004362753770808116
0.35300588343139055	0.0011393193857910286
0.354005900098335	-0.0020667451815258734
0.35500591676527943	-0.005204299985169084
0.3560059334322239	-0.008222197280041645
0.35700595009916836	-0.011069281521922667
0.3580059667661128	-0.01369438936746753
0.35900598343305723	-0.016046349674208003
0.3600060001000017	-0.018073983500552147
0.36100601676694616	-0.019743460659715897
0.3620060334338906	-0.021102603210298245
0.36300605010083503	-0.022223219356804904
0.36400606676777947	-0.023177112734606146
0.36500608343472396	-0.024036079179948516
0.3660061001016684	-0.024871906729954922
0.36700611676861283	-0.025756375622624256
0.36800613343555727	-0.026761258296831923
0.36900615010250176	-0.02795831939232951
0.3700061667694462	-0.029419315749744837
0.37100618343639064	-0.0311966744693241
0.37200620010333507	-0.03325149574333353
0.37300621677027956	-0.03551791996345061
0.374006233437224	-0.037930075799812155
0.37500625010416844	-0.040422084123431234
0.3760062667711129	-0.04292805800619699
0.3770062834380573	-0.04538210272087518
0.3780063001050018	-0.04771831574110762
0.37900631677194624	-0.049870786741412515
0.3800063334388907	-0.05177359759718415
0.3810063501058351	-0.05337521830632994
0.3820063667727796	-0.05469245748275896
0.38300638343972404	-0.055762377906204856
0.3840064001066685	-0.0566220377382451
0.3850064167736129	-0.057308487341333585
0.38600643344055735	-0.057858769278800286
0.38700645010750184	-0.05830991831485164
0.3880064667744463	-0.05869896141457016
0.3890064834413907	-0.05906291774391485
0.39000650010833515	-0.059438798669720704
0.39100651677527964	-0.059857529429029534
0.3920065334422241	-0.06032103890763086
0.3930065501091685	-0.060822615863951573
0.39400656677611295	-0.06135553979840786
0.3950065834430574	-0.06191308241229203
0.3960066001100019	-0.06248850760777285
0.3970066167769463	-0.0630750714878953
0.39800663344389076	-0.06366602235658077
0.3990066501108352	-0.06425460071862651
0.4000066667777797	-0.06483403927970657
0.4010066834447241	-0.0653975988541808
0.40200670011166856	-0.06593868279267459
0.403006716778613	-0.06645070571523383
0.4040067334455575	-0.06692707371931648
0.4050067501125019	-0.06736118514191745
0.40600676677944636	-0.06774643052090792
0.4070067834463908	-0.06807619259503533
0.40800680011333523	-0.06834384630392358
0.4090068167802797	-0.06854275878807256
0.41000683344722416	-0.06866628938885856
0.4110068501141686	-0.06871193258185383
0.41200686678111303	-0.06869711314524238
0.4130068834480575	-0.06864523843009283
0.41400690011500196	-0.06857970915478837
0.4150069167819464	-0.06852391823858871
0.41600693344889084	-0.06850125080162967
0.4170069501158353	-0.06853508416492335
0.41800696678277977	-0.0686487878503582
0.4190069834497242	-0.0688657235806989
0.42000700011666864	-0.06920924527958634
0.4210070167836131	-0.06969478246787653
0.42200703345055757	-0.07029948474691051
0.423007050117502	-0.07098894382685092
0.42400706678444644	-0.07172874121119648
0.4250070834513909	-0.07248445060432226
0.42600710011833537	-0.07322163791147973
0.4270071167852798	-0.0739058612387963
0.42800713345222424	-0.07450267089327588
0.4290071501191687	-0.07497760938279865
0.4300071667861131	-0.07529621141612096
0.4310071834530576	-0.07543230638622167
0.43200720012000204	-0.07540003584102561
0.4330072167869465	-0.07522575588650923
0.4340072334538909	-0.07493581755215094
0.4350072501208354	-0.07455656406830516
0.43600726678777985	-0.07411433086620291
0.4370072834547243	-0.07363544557795117
0.4380073001216687	-0.07314622803653334
0.43900731678861316	-0.07267299027580905
0.44000733345555765	-0.07224203653051438
0.4410073501225021	-0.07187583802912698
0.4420073667894465	-0.07157819715345042
0.44300738345639096	-0.07134722647536154
0.44400740012333545	-0.07118102941716314
0.4450074167902799	-0.07107770160203421
0.4460074334572243	-0.07103533085403
0.44700745012416876	-0.07105199719808208
0.44800746679111325	-0.07112577285999813
0.4490074834580577	-0.07125472226646243
0.4500075001250021	-0.07143690204503515
0.45100751679194656	-0.07166837994410337
0.452007533458891	-0.07193524258923582
0.4530075501258355	-0.07221970834494555
0.4540075667927799	-0.072504888227654
0.45500758345972436	-0.07277400582434732
0.4560076001266688	-0.07301028174316855
0.4570076167936133	-0.07319693361341828
0.45800763346055773	-0.07331717608555435
0.45900765012750216	-0.07335422083119163
0.4600076667944466	-0.0732912765431025
0.46100768346139104	-0.07311646285199795
0.46200770012833553	-0.07284208713959271
0.46300771679527997	-0.07248788527248332
0.4640077334622244	-0.07207359213994115
0.46500775012916884	-0.07161893965239434
0.46600776679611333	-0.0711436567414285
0.46700778346305777	-0.07066746935978625
0.4680078001300022	-0.07021010048136789
0.46900781679694664	-0.06979127010123055
0.4700078334638911	-0.06943069523558885
0.47100785013083557	-0.06914370875225152
0.47200786679778	-0.06892397436096528
0.47300788346472444	-0.06875846726081128
0.4740079001316689	-0.06863415775934546
0.47500791679861337	-0.06853801318528098
0.4760079334655578	-0.0684569978884883
0.47700795013250225	-0.06837807323999497
0.4780079667994467	-0.06828819763198613
0.4790079834663912	-0.06817432647780376
0.4800080001333356	-0.06802341221194742
0.48100801680028005	-0.06782586503716401
0.4820080334672245	-0.06758928447574677
0.4830080501341689	-0.06732659569215894
0.4840080668011134	-0.0670507224891976
0.48500808346805785	-0.06677458569081682
0.4860081001350023	-0.06651110314212816
0.4870081168019467	-0.06627318970940045
0.4880081334688912	-0.06607375728005964
0.48900815013583565	-0.065925714762689
0.4900081668027801	-0.06584196808702894
0.4910081834697245	-0.06583030329465427
0.49200820013666896	-0.06587296795010004
0.49300821680361345	-0.06594425692502907
0.4940082334705579	-0.0660184595562201
0.4950082501375023	-0.06606986220160911
0.49600826680444676	-0.06607274824028941
0.49700828347139125	-0.0660013980725115
0.4980083001383357	-0.06583008911968308
0.4990083168052801	-0.06553309582436927
0.5000083334722246	-0.06508468965029232
0.501008350139169	-0.06446808804086998
0.5020083668061135	-0.06371137667802441
0.5030083834730579	-0.06285668840933666
0.5040084001400024	-0.06194616105109265
0.5050084168069469	-0.06102192944073573
0.5060084334738912	-0.060126125436866164
0.5070084501408357	-0.05930087791924163
0.5080084668077802	-0.058588312788777026
0.5090084834747246	-0.058030552967544724
0.5100085001416691	-0.05766971839877397
0.5110085168086135	-0.05753698677398723
0.512008533475558	-0.0576084428544993
0.5130085501425025	-0.057842865115634884
0.5140085668094468	-0.0581990228323456
0.5150085834763913	-0.05863568230074034
0.5160086001433357	-0.05911160683808533
0.5170086168102802	-0.05958555678280402
0.5180086334772247	-0.060016289494477015
0.5190086501441691	-0.060362559353842306
0.5200086668111136	-0.06058311776279506
0.5210086834780581	-0.060645564998592194
0.5220087001450024	-0.06056227927831867
0.5230087168119469	-0.06035976358969661
0.5240087334788913	-0.060064523304025653
0.5250087501458358	-0.05970306081376265
0.5260087668127803	-0.059301875532521746
0.5270087834797247	-0.05888746389507424
0.5280088001466692	-0.058486319357348736
0.5290088168136136	-0.05812493239643113
0.530008833480558	-0.057829790510564506
0.5310088501475025	-0.05762164153689166
0.5320088668144469	-0.05749207653542468
0.5330088834813914	-0.05742344517455383
0.5340089001483358	-0.05739809044616882
0.5350089168152803	-0.057398352363316384
0.5360089334822248	-0.057406567960200515
0.5370089501491692	-0.05740507129218267
0.5380089668161137	-0.057376193435781334
0.5390089834830581	-0.05730226248867234
0.5400090001500025	-0.05716560356968895
0.541009016816947	-0.0569525074183628
0.5420090334838914	-0.0566695221962107
0.5430090501508359	-0.056329641775123805
0.5440090668177804	-0.05594585976698084
0.5450090834847248	-0.05553116680481777
0.5460091001516693	-0.05509855054282776
0.5470091168186136	-0.05466099565636126
0.5480091334855581	-0.05423148384192605
0.5490091501525026	-0.053822993817187165
0.550009166819447	-0.05344850132096676
0.5510091834863915	-0.05311834103355072
0.552009200153336	-0.0528293153387663
0.5530092168202804	-0.05257389830950554
0.5540092334872249	-0.05234455912084757
0.5550092501541692	-0.052134373700243736
0.5560092668211137	-0.05194241381280284
0.5570092834880582	-0.05176173354591534
0.5580093001550026	-0.05158326072930236
0.5590093168219471	-0.05139792994256332
0.5600093334888915	-0.05119668251517522
0.561009350155836	-0.05097168118569952
0.5620093668227805	-0.050721353225427104
0.5630093834897248	-0.050446142133039586
0.5640094001566693	-0.050146499094319494
0.5650094168236138	-0.049822882044927824
0.5660094334905582	-0.04947575567040304
0.5670094501575027	-0.04910559140616205
0.5680094668244471	-0.04871286743749953
0.5690094834913916	-0.04829806869958809
0.5700095001583361	-0.04786168687747853
0.5710095168252804	-0.04740452020703849
0.5720095334922249	-0.04692892526748264
0.5730095501591693	-0.04643776583553522
0.5740095668261138	-0.04593391268294067
0.5750095834930583	-0.04542024333132127
0.5760096001600027	-0.044899642052177655
0.5770096168269472	-0.044374999866888094
0.5780096334938916	-0.04384921454670881
0.579009650160836	-0.04332519061277438
0.5800096668277805	-0.04280583933609719
0.5810096834947249	-0.042291669964153976
0.5820097001616694	-0.04177067513963209
0.5830097168286139	-0.04122679713056236
0.5840097334955583	-0.0406439828695023
0.5850097501625028	-0.04000618603888743
0.5860097668294472	-0.03929736707103139
0.5870097834963917	-0.03850149314812576
0.5880098001633361	-0.037602538202240035
0.5890098168302805	-0.0365844829153218
0.590009833497225	-0.035431314719196666
0.5910098501641694	-0.03413191032828378
0.5920098668311139	-0.03270065381580307
0.5930098834980584	-0.031160233826444568
0.5940099001650028	-0.029533350226172816
0.5950099168319473	-0.02784270963083048
0.5960099334988918	-0.026111025406138293
0.5970099501658361	-0.024361017667694787
0.5980099668327806	-0.022615413280976573
0.599009983499725	-0.02089694586133842
0.6000100001666695	-0.01922835577401285
0.601010016833614	-0.017625387221243988
0.6020100335005584	-0.01606705058289944
0.6030100501675029	-0.014520360776571317
0.6040100668344472	-0.01295233394331037
0.6050100835013917	-0.011329992890559285
0.6060101001683362	-0.00962036717563858
0.6070101168352806	-0.007790493105746909
0.6080101335022251	-0.0058074137379608955
0.6090101501691695	-0.003638178879235218
0.610010166836114	-0.001249845086402389
0.6110101835030585	0.0013810969524760278
0.6120102001700028	0.004228460773439554
0.6130102168369473	0.007249741338747452
0.6140102335038918	0.010402417224297128
0.6150102501708362	0.013643960256108055
0.6160102668377807	0.016931835510321652
0.6170102835047251	0.02022350131320114
0.6180103001716696	0.023476409241132236
0.6190103168386141	0.026648004120621994
0.6200103335055585	0.029695724028300032
0.621010350172503	0.03258993448857464
0.6220103668394473	0.035369478776832
0.6230103835063918	0.03809577461429054
0.6240104001733363	0.040830246923310054
0.6250104168402807	0.0436343138763716
0.6260104335072252	0.04656938689607869
0.6270104501741697	0.049696870655156385
0.6280104668411141	0.05307816307645231
0.6290104835080585	0.056774655332935596
0.6300105001750029	0.06085616337128153
0.6310105168419474	0.06537792266731784
0.6320105335088919	0.07029465708698118
0.6330105501758363	0.07553407570119193
0.6340105668427808	0.0810240044645736
0.6350105835097252	0.08669240350804754
0.6360106001766697	0.09246736713883227
0.6370106168436142	0.09827712384044508
0.6380106335105585	0.10405003627269996
0.639010650177503	0.10971460127170973
0.6400106668444474	0.11519944984988403
0.6410106835113919	0.12044590977885376
0.6420107001783364	0.12546257064521205
0.6430107168452808	0.13028048565412076
0.6440107335122253	0.13493085724019596
0.6450107501791698	0.1394450220143515
0.6460107668461141	0.143854450763799
0.6470107835130586	0.14819074845204774
0.648010800180003	0.1524856542189052
0.6490108168469475	0.15677104138047648
0.650010833513892	0.16107891742916372
0.6510108501808364	0.16543631781758952
0.6520108668477809	0.1698430022473824
0.6530108835147252	0.17428970674403946
0.6540109001816697	0.17876729506748457
0.6550109168486142	0.1832667651539397
0.6560109335155586	0.18777924911592397
0.6570109501825031	0.19229601324225484
0.6580109668494476	0.19680845799804741
0.659010983516392	0.20130811802471424
0.6600110001833365	0.20578666213996627
0.6610110168502809	0.21023411125583874
0.6620110335172253	0.21463101045538555
0.6630110501841698	0.21895481408864292
0.6640110668511142	0.2231831083165697
0.6650110835180587	0.22729361347642277
0.6660111001850031	0.23126418408175722
0.6670111168519476	0.2350728088224254
0.6680111335188921	0.2386976105645774
0.6690111501858365	0.24211684635066136
0.670011166852781	0.24530890739942332
0.6710111835197254	0.24825352586847194
0.6720112001866698	0.25093710550644455
0.6730112168536143	0.25334838770707846
0.6740112335205587	0.2554762497244705
0.6750112501875032	0.2573097029890149
0.6760112668544477	0.258837893107404
0.6770112835213921	0.26005009986262784
0.6780113001883366	0.260935737213974
0.6790113168552809	0.26148435329702835
0.6800113335222254	0.26168563042367404
0.6810113501891699	0.2615358953378024
0.6820113668561143	0.2610670389906483
0.6830113835230588	0.2603230809020332
0.6840114001900032	0.25934818431385565
0.6850114168569477	0.2581866466443112
0.6860114335238922	0.2568828994878939
0.6870114501908365	0.25548150861539526
0.688011466857781	0.2540271739739049
0.6890114835247255	0.25256472968680976
0.6900115001916699	0.2511391440537947
0.6910115168586144	0.24978316352268962
0.6920115335255588	0.2484621160213256
0.6930115501925033	0.24711589882553991
0.6940115668594478	0.24569048854841397
0.6950115835263921	0.2441410794525185
0.6960116001933366	0.2424227560767158
0.697011616860281	0.24049040801494023
0.6980116335272255	0.23829872991619905
0.69901165019417	0.2358022214845714
0.7000116668611144	0.23295518747920949
0.7010116835280589	0.22972413459503155
0.7020117001950034	0.2261434637574865
0.7030117168619477	0.22227064474268568
0.7040117335288922	0.2181629766184016
0.7050117501958366	0.21387756351808468
0.7060117668627811	0.20947131463025953
0.7070117835297256	0.2050009441985223
0.70801180019667	0.20052297152154205
0.7090118168636145	0.19609372095306002
0.7100118335305589	0.19176932190189003
0.7110118501975033	0.1875950053412045
0.7120118668644478	0.18355675007519906
0.7130118835313922	0.17962008225149456
0.7140119001983367	0.1757503149371123
0.7150119168652811	0.1719125662541459
0.7160119335322256	0.1680717593797619
0.7170119501991701	0.16419262254619904
0.7180119668661145	0.16023968904076852
0.719011983533059	0.1561772972058537
0.7200120002000034	0.15196959043891126
0.7210120168669478	0.14758759868422167
0.7220120335338923	0.14304140930881035
0.7230120502008367	0.13835443808957715
0.7240120668677812	0.13354991843456274
0.7250120835347257	0.12865088880688114
0.7260121002016701	0.12368019272471813
0.7270121168686146	0.11866047876133239
0.7280121335355589	0.11361420054505499
0.7290121502025034	0.10856361675928913
0.7300121668694479	0.10353079114251082
0.7310121835363923	0.09853882984897168
0.7320122002033368	0.09361753429124377
0.7330122168702813	0.08879889518086263
0.7340122335372257	0.08411471058630687
0.7350122502041702	0.0795965836311271
0.7360122668711145	0.07527592249394645
0.737012283538059	0.0711839404084604
0.7380123002050035	0.06735165566343734
0.7390123168719479	0.06380989160271748
0.7400123335388924	0.06058927662521383
0.7410123502058368	0.05770680664494054
0.7420123668727813	0.05510411147915226
0.7430123835397258	0.052696500251777564
0.7440124002066701	0.05039906097037241
0.7450124168736146	0.04812668669756463
0.7460124335405591	0.04579407555105484
0.7470124502075035	0.04331573070361585
0.748012466874448	0.040605960383093394
0.7490124835413924	0.037578877872405304
0.7500125002083369	0.034148401509541924
0.7510125168752814	0.03025341927510677
0.7520125335422257	0.02597404657220082
0.7530125502091702	0.02143957047426867
0.7540125668761146	0.016779134394430163
0.7550125835430591	0.012121686800877295
0.7560126002100036	0.007604777679441262
0.757012616876948	0.0033655378153184257
0.7580126335438925	-0.00047356651222216564
0.7590126502108369	-0.0037904335254340515
0.7600126668777814	-0.006463240660124561
0.7610126835447258	-0.008398076581239809
0.7620127002116702	-0.009657314285508459
0.7630127168786147	-0.010358301361253906
0.7640127335455592	-0.010618723504355313
0.7650127502125036	-0.010556545624245463
0.7660127668794481	-0.010290011843911689
0.7670127835463925	-0.009937645499894524
0.768012800213337	-0.009618249142288803
0.7690128168802814	-0.009450904534742852
0.7700128335472258	-0.009554972654459641
0.7710128502141703	-0.010031159804990794
0.7720128668811147	-0.010873061162148956
0.7730128835480592	-0.012036735397140754
0.7740129002150037	-0.013478478211698758
0.7750129168819481	-0.015154864521109016
0.7760129335488926	-0.017022748454212127
0.777012950215837	-0.01903926335340197
0.7780129668827814	-0.02116182177462676
0.7790129835497259	-0.02334811548738847
0.7800130002166703	-0.025556115474742912
0.7810130168836148	-0.027752229500653168
0.7820130335505593	-0.029949626717093936
0.7830130502175037	-0.032178194956356536
0.7840130668844482	-0.034468120252411236
0.7850130835513925	-0.03684986785278225
0.786013100218337	-0.03935418221854763
0.7870131168852815	-0.04201208702433959
0.7880131335522259	-0.044854885158343856
0.7890131502191704	-0.047914158722300544
0.7900131668861148	-0.05122176903150331
0.7910131835530593	-0.05481101970286946
0.7920132002200038	-0.05872215150709484
0.7930132168869481	-0.06299804944479451
0.7940132335538926	-0.06768188055727527
0.7950132502208371	-0.07281709109939792
0.7960132668877815	-0.07844740653957726
0.797013283554726	-0.08461683155978195
0.7980133002216704	-0.0913696500555345
0.7990133168886149	-0.09875042513591153
0.8000133335555594	-0.10699785702138236
0.8010133502225038	-0.11618220517640987
0.8020133668894482	-0.1260275209796437
0.8030133835563926	-0.13624270759812665
0.8040134002233371	-0.14654528790449112
0.8050134168902816	-0.1566614303285273
0.806013433557226	-0.16632595244709797
0.8070134502241705	-0.17528232131921428
0.808013466891115	-0.18328265348603634
0.8090134835580594	-0.19008771497087243
0.8100135002250038	-0.19546692127918003
0.8110135168919482	-0.19921805323235772
0.8120135335588927	-0.20126144779523109
0.8130135502258372	-0.20156690697183527
0.8140135668927816	-0.2001129344357812
0.8150135835597261	-0.1968866833428285
0.8160136002266705	-0.1918839563308861
0.817013616893615	-0.18510920552001073
0.8180136335605594	-0.17657553251240835
0.8190136502275038	-0.16630468839243326
0.8200136668944483	-0.15432707372658896
0.8210136835613928	-0.14066303538162153
0.8220137002283372	-0.12523301349848898
0.8230137168952817	-0.10792702974853981
0.8240137335622261	-0.08864370365793883
0.8250137502291706	-0.06729030423500007
0.826013766896115	-0.04378274997018646
0.8270137835630594	-0.018045608836109034
0.8280138002300039	0.009987901712472177
0.8290138168969483	0.040375914738648475
0.8300138335638928	0.07316791382336243
0.8310138502308373	0.10839708431310952
0.8320138668977817	0.14604336193342068
0.8330138835647262	0.1860619119878369
0.8340139002316705	0.22839922828988238
0.835013916898615	0.2729931551709191
0.8360139335655595	0.3197728874801645
0.8370139502325039	0.36865897058468805
0.8380139668994484	0.4195633003694098
0.8390139835663929	0.47238912323710147
0.8400140002333373	0.5270145791458362
0.8410140169002818	0.5829306432340504
0.8420140335672262	0.6393475854627353
0.8430140502341706	0.6955038239001993
0.8440140669011151	0.7506823981020755
0.8450140835680595	0.8042109865996399
0.846014100235004	0.8554619068998112
0.8470141169019484	0.9038521154851498
0.8480141335688929	0.9488432078138611
0.8490141502358374	0.989941418319792
0.8500141669027818	1.0266976204124318
0.8510141835697262	1.0587222134997059
0.8520142002366707	1.0857578492957702
0.8530142169036151	1.1076237630606018
0.8540142335705596	1.1241838755124838
0.855014250237504	1.1353467463453413
0.8560142669044485	1.1410655742287432
0.857014283571393	1.141338196807901
0.8580143002383374	1.1362070907036677
0.8590143169052818	1.1257593715125422
0.8600143335722262	1.1101267938066628
0.8610143502391707	1.0894645623928905
0.8620143669061152	1.063847242192897
0.8630143835730596	1.0333481607185175
0.8640144002400041	0.998080916518593
0.8650144169069485	0.9582242817625893
0.866014433573893	0.914247039580292
0.8670144502408375	0.8666538396788537
0.8680144669077818	0.8159209972533487
0.8690144835747263	0.7624964929867714
0.8700145002416708	0.7067999730500371
0.8710145169086152	0.6492513473435725
0.8720145335755597	0.5904120639606528
0.8730145502425041	0.5308777132173047
0.8740145669094486	0.4712156476587639
0.8750145835763931	0.4119648853181877
0.8760146002433374	0.35363610971665266
0.8770146169102819	0.2967116698631563
0.8780146335772263	0.2416455802546171
0.8790146502441708	0.188863520875873
0.8800146669111153	0.13876283719968355
0.8810146835780597	0.09167584269712115
0.8820147002450042	0.04768752163477658
0.8830147169119487	0.006773630864497845
0.884014733578893	-0.03111853641049219
0.8850147502458375	-0.0660700214990507
0.8860147669127819	-0.09819020022211392
0.8870147835797264	-0.1276167829126984
0.8880148002466709	-0.15451581441589898
0.8890148169136153	-0.17882694648184658
0.8900148335805598	-0.2002806867084966
0.8910148502475042	-0.21923613163881017
0.8920148669144486	-0.23583949548373
0.8930148835813931	-0.25014394486508135
0.8940149002483375	-0.262195612734472
0.895014916915282	-0.2720337401168347
0.8960149335822265	-0.27969067611042764
0.8970149502491709	-0.2851918778868352
0.8980149669161154	-0.28855591069096553
0.8990149835830598	-0.2897944478410533
0.9000150002500042	-0.2889122707286585
0.9010150169169487	-0.28593729610056196
0.9020150335838931	-0.2810714090712078
0.9030150502508376	-0.27457699040776506
0.904015066917782	-0.26670964304787675
0.9050150835847265	-0.2577180779977164
0.906015100251671	-0.24784411433678352
0.9070151169186154	-0.23732267921790226
0.9080151335855599	-0.22638180786722253
0.9090151502525042	-0.21524264358421927
0.9100151669194487	-0.2041194377416933
0.9110151835863932	-0.1931991691047963
0.9120152002533376	-0.1825385961454569
0.9130152169202821	-0.17214143465326387
0.9140152335872266	-0.16200442793824288
0.915015250254171	-0.1521174273837451
0.9160152669211155	-0.14246339244644673
0.9170152835880598	-0.13301839065635024
0.9180153002550043	-0.12375159761678231
0.9190153169219488	-0.11462529700439562
0.9200153335888932	-0.10559488056916788
0.9210153502558377	-0.09662719966201119
0.9220153669227821	-0.08779378050609063
0.9230153835897266	-0.07920118770413434
0.9240154002566711	-0.07094916927462676
0.9250154169236154	-0.06313058130937707
0.9260154335905599	-0.055831387973519254
0.9270154502575044	-0.04913066150551308
0.9280154669244488	-0.04310058221714426
0.9290154835913933	-0.037806438493522346
0.9300155002583377	-0.033306626793083396
0.9310155169252822	-0.029636372254958854
0.9320155335922267	-0.026724577316030028
0.933015550259171	-0.024455721507847885
0.9340155669261155	-0.022707323035114243
0.9350155835930599	-0.021354490543410945
0.9360156002600044	-0.020306264897305932
0.9370156169269489	-0.01948715235959946
0.9380156335938933	-0.018821645113591016
0.9390156502608378	-0.018234588386860325
0.9400156669277822	-0.01765118045126682
0.9410156835947266	-0.01700498112619591
0.9420157002616711	-0.016279045554566746
0.9430157169286155	-0.015475411334937503
0.94401573359556	-0.014596504549191827
0.9450157502625045	-0.013645104323492769
0.9460157669294489	-0.012624342828283442
0.9470157835963934	-0.011537705278286105
0.9480158002633378	-0.010389029932503244
0.9490158169302823	-0.009182508094216672
0.9500158335972267	-0.007922684110988183
0.9510158502641711	-0.006615149436723276
0.9520158669311156	-0.005270127399346796
0.95301588359806	-0.0038998234509851296
0.9540159002650045	-0.0025167992751302026
0.955015916931949	-0.0011339695995536562
0.9560159335988934	0.00023539780369329424
0.9570159502658379	0.0015776821182794248
0.9580159669327823	0.002878909483594245
0.9590159835997267	0.004124752994747473
0.9600160002666712	0.005300532702568726
0.9610160169336156	0.0063939211288102284
0.9620160336005601	0.007408994929592275
0.9630160502675046	0.008355885246134964
0.964016066934449	0.009244383062914047
0.9650160836013935	0.0100839263201256
0.9660161002683378	0.01088359991368599
0.9670161169352823	0.011652135695231759
0.9680161336022268	0.01239791247211981
0.9690161502691712	0.013128956007427745
0.9700161669361157	0.013852939019953022
0.9710161836030601	0.014580383407936149
0.9720162002700046	0.015341384400191522
0.9730162169369491	0.01617333643029309
0.9740162336038934	0.01711329670579055
0.9750162502708379	0.018197969389954022
0.9760162669377824	0.019463705601773743
0.9770162836047268	0.020946503415960816
0.9780163002716713	0.022682007862946055
0.9790163169386157	0.024705510928881055
0.9800163336055602	0.0270519515556374
0.9810163502725047	0.029746709471305144
0.982016366939449	0.03275725639472117
0.9830163836063935	0.03603371096966817
0.9840164002733379	0.0395380424871127
0.9850164169402824	0.04322103666770675
0.9860164336072269	0.0470326015153001
0.9870164502741713	0.05092258315831781
0.9880164669411158	0.054840765849758506
0.9890164836080603	0.05873687196719596
0.9900165002750047	0.0625605620127782
0.9910165169419491	0.06626510469467048
0.9920165336088935	0.06982675882616994
0.993016550275838	0.07323065044221203
0.9940165669427825	0.07646186318083516
0.9950165836097269	0.07950541880465187
0.9960166002766714	0.08234627720084953
0.9970166169436158	0.08496933638118986
0.9980166336105603	0.08735943248200928
0.9990166502775047	0.08950133976421829
1.0000166669444492	0.09137977061330214
1.0010166836113936	0.09299010322486266
1.002016700278338	0.09439535085807035
1.0030167169452826	0.09568480179663266
1.004016733612227	0.09694774345601768
1.0050167502791714	0.09827339452015926
1.0060167669461157	0.09975090730261127
1.0070167836130604	0.10146937216956346
1.0080168002800047	0.10351781761177704
1.0090168169469491	0.10598521024459064
1.0100168336138937	0.10896045480791422
1.011016850280838	0.11251397954457626
1.0120168669477825	0.11659940068933379
1.013016883614727	0.12112465943057604
1.0140169002816715	0.1259975301992286
1.0150169169486158	0.13112572555079544
1.0160169336155604	0.13641689616535094
1.0170169502825048	0.14177863084754766
1.0180169669494492	0.14711845652660965
1.0190169836163936	0.15234383825633843
1.0200170002833382	0.1573621792151064
1.0210170169502826	0.16209518653667937
1.022017033617227	0.16655601339997125
1.0230170502841716	0.17079365623947976
1.024017066951116	0.17485713433920091
1.0250170836180603	0.17879540510770808
1.026017100285005	0.182657364078149
1.0270171169519493	0.18649184490824333
1.0280171336188937	0.19034761938028896
1.0290171502858383	0.19427339740115404
1.0300171669527827	0.19831782700228542
1.031017183619727	0.20252285403499595
1.0320172002866714	0.2068878661981386
1.033017216953616	0.21139544326329618
1.0340172336205604	0.21602806258609522
1.0350172502875048	0.22076813964673211
1.0360172669544494	0.22559802804998266
1.0370172836213938	0.23050001952519206
1.0380173002883382	0.23545634392628506
1.0390173169552828	0.24045071305875668
1.0400173336222271	0.24547533489637516
1.0410173502891715	0.25051408446574885
1.0420173669561161	0.25555953624235705
1.0430173836230605	0.2606086191345898
1.044017400290005	0.2656583336937247
1.0450174169569493	0.27070574145319215
1.0460174336238939	0.2757479649285838
1.0470174502908383	0.2807821876176441
1.0480174669577826	0.2858056540002783
1.0490174836247272	0.2908156695385451
1.0500175002916716	0.29580960067666345
1.051017516958616	0.30078408006516233
1.0520175336255606	0.3057306670251973
1.053017550292505	0.3106389412148315
1.0540175669594494	0.3154985380787058
1.055017583626394	0.3202991540436137
1.0560176002933384	0.32503054651850943
1.0570176169602827	0.32968253389450036
1.0580176336272271	0.33424499554485515
1.0590176502941717	0.33870787182499473
1.060017666961116	0.34306116407250165
1.0610176836280605	0.34729689769590466
1.062017700295005	0.3514199004897191
1.0630177169619495	0.35544014706959487
1.0640177336288938	0.35936768630733507
1.0650177502958385	0.36321262805689575
1.0660177669627828	0.36698514315439346
1.0670177836297272	0.37069546341809856
1.0680178002966716	0.3743538816484419
1.0690178169636162	0.3779707516280071
1.0700178336305606	0.38155648812153886
1.071017850297505	0.38512117603548607
1.0720178669644496	0.3886724125611159
1.073017883631394	0.3922168341741979
1.0740179002983383	0.39576113559977805
1.075017916965283	0.3993120725450555
1.0760179336322273	0.40287646169939023
1.0770179502991717	0.4064611807342954
1.0780179669661163	0.41007316830344476
1.0790179836330607	0.4137194240426655
1.080018000300005	0.417407008569945
1.0810180169669494	0.421136954858219
1.082018033633894	0.4248704652827556
1.0830180503008384	0.42855274329711485
1.0840180669677828	0.4321290093229467
1.0850180836347274	0.4355445447640566
1.0860181003016718	0.43874469200640825
1.0870181169686162	0.4416748544181207
1.0880181336355608	0.4442804963494716
1.0890181503025052	0.4465071431328944
1.0900181669694495	0.44830038108298037
1.0910181836363941	0.4496182228416477
1.0920182003033385	0.450500139870475
1.093018216970283	0.4510185748435389
1.0940182336372273	0.451246123806294
1.0950182503041719	0.4512554437863497
1.0960182669711163	0.45111925279347415
1.0970182836380606	0.4509103298195904
1.0980183003050052	0.4507015148387809
1.0990183169719496	0.4505657088072832
1.100018333638894	0.4505758736634928
1.1010183503058386	0.45079083544622633
1.102018366972783	0.45117558539795094
1.1030183836397274	0.45165704932413425
1.104018400306672	0.4521621030060528
1.1050184169736164	0.4526176830068409
1.1060184336405607	0.4529507868717897
1.1070184503075051	0.4530884731283477
1.1080184669744497	0.45295786128612
1.109018483641394	0.45248613183686953
1.1100185003083385	0.4516005262545147
1.111018516975283	0.45024243496879823
1.1120185336422275	0.4484469253327945
1.1130185503091719	0.44628730049196375
1.1140185669761165	0.4438345137802938
1.1150185836430608	0.44114482008353717
1.1160186003100052	0.43829202759133157
1.1170186169769498	0.4353539532792622
1.1180186336438942	0.43240837076834177
1.1190186503108386	0.42953301032501345
1.120018666977783	0.42680555886114946
1.1210186836447276	0.42429168493625513
1.122018700311672	0.4219770622516955
1.1230187169786163	0.4198145790647945
1.124018733645561	0.417756981628931
1.1250187503125053	0.4157569728429153
1.1260187669794497	0.41376721225098523
1.1270187836463943	0.4117403160428107
1.1280188003133387	0.40962885705348856
1.129018816980283	0.40738536476354736
1.1300188336472277	0.4049623252989435
1.131018850314172	0.4023179280864407
1.1320188669811164	0.3994488686328266
1.1330188836480608	0.39636765346883684
1.1340189003150054	0.39308679465464547
1.1350189169819498	0.3896187608958596
1.1360189336488942	0.38597597754351226
1.1370189503158388	0.38217082659407003
1.1380189669827832	0.37821564668942476
1.1390189836497275	0.3741227331169023
1.1400190003166721	0.369904337809254
1.1410190169836165	0.3655730372917264
1.142019033650561	0.3611438446776052
1.1430190503175053	0.3566327540159446
1.1440190669844499	0.35205571923248463
1.1450190836513943	0.34742865089840014
1.1460191003183386	0.34276741623029056
1.1470191169852832	0.3380878390901894
1.1480191336522276	0.33340569998555547
1.149019150319172	0.3287367360692816
1.1500191669861166	0.32409664113968584
1.151019183653061	0.3194981217049831
1.1520192003200054	0.3149339048371508
1.15301921698695	0.31038840492477077
1.1540192336538944	0.3058459663176604
1.1550192503208387	0.30129089001106757
1.1560192669877831	0.29670743364567215
1.1570192836547277	0.29207981150757995
1.158019300321672	0.28739219452833026
1.1590193169886165	0.28262871028488773
1.160019333655561	0.27777344299965095
1.1610193503225055	0.2728145687122604
1.1620193669894499	0.26776835609024147
1.1630193836563945	0.2626627507900171
1.1640194003233388	0.25752569379145
1.1650194169902832	0.25238508271982846
1.1660194336572278	0.24726877184587426
1.1670194503241722	0.24220457208573487
1.1680194669911166	0.23722025100099126
1.169019483658061	0.23234353279865
1.1700195003250056	0.2276020983311515
1.17101951699195	0.2230186288189077
1.1720195336588943	0.21858187904073778
1.173019550325839	0.21426638591898525
1.1740195669927833	0.21004659519384983
1.1750195836597277	0.2058969092509565
1.1760196003266723	0.2017916871213635
1.1770196169936167	0.1977052444815552
1.178019633660561	0.19361185365344943
1.1790196503275057	0.18948574360438963
1.18001966699445	0.18530109994715244
1.1810196836613944	0.18103689063688053
1.1820197003283388	0.17670518756786613
1.1830197169952834	0.17233194501968802
1.1840197336622278	0.16794312195085542
1.1850197503291722	0.16356463396530357
1.1860197669961168	0.1592223533124011
1.1870197836630612	0.15494210888694263
1.1880198003300055	0.15074968622915563
1.1890198169969501	0.14667082752469382
1.1900198336638945	0.14273123160464402
1.191019850330839	0.1389512880315471
1.1920198669977835	0.13531499971688896
1.1930198836647279	0.13179099281027207
1.1940199003316723	0.12834779605245378
1.1950199169986166	0.12495389482961727
1.1960199336655613	0.12157773117337904
1.1970199503325056	0.11818770376078151
1.19801996699945	0.1147521679143003
1.1990199836663946	0.11123943560183709
1.200020000333339	0.10761777543672654
1.2010200170002834	0.10386195676787809
1.202020033667228	0.09999208556188746
1.2030200503341724	0.09604744998658575
1.2040200670011167	0.09206735693771284
1.2050200836680613	0.08809106976133722
1.2060201003350057	0.08415781437642787
1.20702011700195	0.0803067747998073
1.2080201336688945	0.07657709169372975
1.209020150335839	0.07300786236587635
1.2100201670027835	0.06963814076936026
1.2110201836697279	0.06650135021185527
1.2120202003366725	0.0635919408155593
1.2130202170036168	0.06088775472532864
1.2140202336705612	0.05836652977208497
1.2150202503375058	0.05600596043217748
1.2160202670044502	0.05378369782738662
1.2170202836713946	0.05167775900074992
1.218020300338339	0.04966705571711705
1.2190203170052836	0.04772826193209819
1.220020333672228	0.04583781190717757
1.2210203503391723	0.043974919979700364
1.222020367006117	0.04213819960981391
1.2230203836730613	0.04033455971040813
1.2240204003400057	0.038570950953500126
1.2250204170069503	0.036854334628136046
1.2260204336738947	0.03519168264039445
1.227020450340839	0.0335899775133825
1.2280204670077837	0.032056212387239866
1.229020483674728	0.030597391019135216
1.2300205003416724	0.029220527783269126
1.2310205170086168	0.027930869817536823
1.2320205336755614	0.02672116896192396
1.2330205503425058	0.025578821133641592
1.2340205670094502	0.024491212266352803
1.2350205836763948	0.02344573891074992
1.2360206003433392	0.02242980823455712
1.2370206170102835	0.02143083802252793
1.2380206336772281	0.020436256676447905
1.2390206503441725	0.019433503215131685
1.240020667011117	0.01841002727442573
1.2410206836780615	0.0173563763196683
1.242020700345006	0.016284928602399492
1.2430207170119503	0.015217476179194455
1.2440207336788947	0.014175858578873081
1.2450207503458393	0.013181925947285076
1.2460207670127836	0.012257539047311628
1.247020783679728	0.011424569258863565
1.2480208003466726	0.010704898578883192
1.249020817013617	0.010120419621342705
1.2500208336805614	0.009693035617245539
1.251020850347506	0.009438937166394002
1.2520208670144504	0.009333680386090597
1.2530208836813947	0.009335242161334249
1.2540209003483394	0.009401539615076664
1.2550209170152837	0.009490500487299812
1.2560209336822281	0.0095600631350165
1.2570209503491725	0.009568176532269913
1.258020967016117	0.009472800270134026
1.2590209836830615	0.00923190455671305
1.2600210003500059	0.008803470217142362
1.2610210170169505	0.008152673970634645
1.2620210336838948	0.007295975727114882
1.2630210503508392	0.006272129070521342
1.2640210670177838	0.005119989200305522
1.2650210836847282	0.0038784219329489264
1.2660211003516726	0.0025863037019642696
1.2670211170186172	0.0012825215578943575
1.2680211336855616	5.973168312924625e-06
1.269021150352506	-0.001204433182176056
1.2700211670194503	-0.0023097785919374988
1.271021183686395	-0.003274867198408914
1.2720212003533393	-0.004091262862764705
1.2730212170202837	-0.004762202466884509
1.2740212336872283	-0.005290960965302502
1.2750212503541727	-0.005680802695523214
1.276021267021117	-0.005934981378019779
1.2770212836880617	-0.006056740116235295
1.278021300355006	-0.006049311396581834
1.2790213170219504	-0.005915917088441059
1.2800213336888948	-0.0056597684441640865
1.2810213503558394	-0.005285941896068234
1.2820213670227838	-0.004813017306312274
1.2830213836897282	-0.004265486936523514
1.2840214003566728	-0.0036678576152699236
1.2850214170236172	-0.003044625554088084
1.2860214336905615	-0.0024202763474849977
1.2870214503575061	-0.0018192849729366783
1.2880214670244505	-0.001266115790888019
1.289021483691395	-0.0007852225447543245
1.2900215003583395	-0.00040104836091922787
1.291021517025284	-0.00013459457833073056
1.2920215336922283	1.7986497416909095e-05
1.2930215503591727	7.148552889957305e-05
1.2940215670261173	4.07512135182685e-05
1.2950215836930616	-5.935713429480131e-05
1.296021600360006	-0.0002139695830773291
1.2970216170269506	-0.0004082055843360518
1.298021633693895	-0.0006271739725475373
1.2990216503608394	-0.0008559729651572822
1.300021667027784	-0.0010796901625802768
1.3010216836947284	-0.0012844026543089512
1.3020217003616728	-0.0014634515572791778
1.3030217170286174	-0.0016133813880007996
1.3040217336955617	-0.0017307317005785996
1.3050217503625061	-0.0018120281121066302
1.3060217670294505	-0.0018537856153983808
1.307021783696395	-0.0018525085862372945
1.3080218003633395	-0.001804690783375524
1.3090218170302839	-0.0017068153485352124
1.3100218336972285	-0.0015553548064074787
1.3110218503641728	-0.0013490864313141456
1.3120218670311172	-0.0011036996569315123
1.3130218836980618	-0.0008423847195762461
1.3140219003650062	-0.0005883551245158096
1.3150219170319506	-0.0003648137599875905
1.3160219336988952	-0.00019495289719801984
1.3170219503658396	-0.00010195419032307676
1.318021967032784	-0.00010898867650813897
1.3190219836997283	-0.00023921677586795408
1.320022000366673	-0.0005157882914867311
1.3210220170336173	-0.0009561182618342112
1.3220220337005617	-0.001535572251806081
1.3230220503675063	-0.0022107669215141374
1.3240220670344507	-0.002938222124596292
1.325022083701395	-0.0036744470976610368
1.3260221003683397	-0.0043759404602847305
1.327022117035284	-0.004999190215014163
1.3280221337022284	-0.005500673747365514
1.329022150369173	-0.005836857825823769
1.3300221670361174	-0.005964198601843563
1.3310221837030618	-0.005844988593973146
1.3320222003700062	-0.005484657867922413
1.3330222170369508	-0.00490793971782388
1.3340222337038952	-0.004139647383174287
1.3350222503708395	-0.003204543483971624
1.3360222670377842	-0.0021274691586069486
1.3370222837047285	-0.0009334414823827918
1.338022300371673	0.00035252403373925564
1.3390223170386175	0.0017054170269216087
1.340022333705562	0.0031002322824489822
1.3410223503725063	0.004511499779233441
1.3420223670394509	0.005910269837747135
1.3430223837063953	0.007266031495292763
1.3440224003733396	0.008548271450855627
1.345022417040284	0.009726481551543062
1.3460224337072286	0.010770158792585869
1.347022450374173	0.011648805317338872
1.3480224670411174	0.012331928417279179
1.349022483708062	0.012789040532007932
1.3500225003750064	0.012989659249248851
1.3510225170419508	0.012909697452587183
1.3520225337088954	0.012572686482635945
1.3530225503758397	0.012023655287401456
1.3540225670427841	0.011307742643617473
1.3550225837097285	0.01047009247614026
1.356022600376673	0.009555853857950474
1.3570226170436175	0.008610181010150564
1.3580226337105619	0.007678233301967591
1.3590226503775065	0.006805175250751344
1.3600226670444509	0.006036176521974317
1.3610226837113952	0.0054115975456789775
1.3620227003783398	0.004935758080016261
1.3630227170452842	0.004596643613991648
1.3640227337122286	0.0043821636951995565
1.3650227503791732	0.004280233019356811
1.3660227670461176	0.004278771430303782
1.367022783713062	0.004365703920004173
1.3680228003800063	0.004528960628544751
1.369022817046951	0.004756476844135659
1.3700228337138953	0.005036193003110196
1.3710228503808397	0.005356282047538383
1.3720228670477843	0.005706632565967854
1.3730228837147287	0.0060779169177586825
1.374022900381673	0.006460816547133069
1.3750229170486177	0.0068460180464365505
1.376022933715562	0.007224213156138082
1.3770229503825064	0.007586098764829223
1.378022967049451	0.007922376909225511
1.3790229837163954	0.008223754774165265
1.3800230003833398	0.008480944692610452
1.3810230170502842	0.008685821419975783
1.3820230337172288	0.008839013702559457
1.3830230503841732	0.008945154666647418
1.3840230670511176	0.00900890318353914
1.3850230837180622	0.009034923272657387
1.3860231003850065	0.009027884101548056
1.387023117051951	0.008992459985880186
1.3880231337188955	0.00893333038944647
1.38902315038584	0.00885517992416254
1.3900231670527843	0.008762698350067235
1.3910231837197289	0.00866117504925
1.3920232003866733	0.008560420515707712
1.3930232170536176	0.008472323379826889
1.394023233720562	0.008408788293698573
1.3950232503875066	0.008381725057536711
1.396023267054451	0.008403048619679273
1.3970232837213954	0.008484679076586546
1.39802330038834	0.008638541672842715
1.3990233170552844	0.008876566801154846
1.4000233337222288	0.009210690002353698
1.4010233503891734	0.00964954401084723
1.4020233670561177	0.010176515466622823
1.4030233837230621	0.010763357186361936
1.4040234003900067	0.011381774783262607
1.405023417056951	0.0120034850376282
1.4060234337238955	0.012600210184336387
1.4070234503908399	0.013143677939943183
1.4080234670577845	0.01360562119701702
1.4090234837247289	0.013957777996249017
1.4100235003916732	0.014171891526453536
1.4110235170586178	0.01422489581209961
1.4120235337255622	0.014133507517945159
1.4130235503925066	0.01393286131352646
1.4140235670594512	0.013658197156548951
1.4150235837263956	0.013344760152841716
1.41602360039334	0.013027800556357154
1.4170236170602846	0.012742573769170465
1.418023633727229	0.012524340341480516
1.4190236503941733	0.01240836597160914
1.4200236670611177	0.012429921506001437
1.4210236837280623	0.012618778035717112
1.4220237003950067	0.01296108855103555
1.423023717061951	0.01342095122226679
1.4240237337288957	0.013967012724294372
1.42502375039584	0.014568315628841753
1.4260237670627844	0.015193895513541111
1.427023783729729	0.015812780961934437
1.4280238003966734	0.016393993563472212
1.4290238170636178	0.016906547913514255
1.4300238337305622	0.017319451613329918
1.4310238503975068	0.017607232156817303
1.4320238670644512	0.017787218948962815
1.4330238837313956	0.017896716940328253
1.4340239003983402	0.017973136703452144
1.4350239170652845	0.018053881816782122
1.436023933732229	0.018176348864675052
1.4370239503991735	0.018377927437397096
1.438023967066118	0.01869600013112327
1.4390239837330623	0.01916794254793808
1.4400240004000069	0.01983112329583475
1.4410240170669513	0.020716662631237944
1.4420240337338956	0.021807094956075336
1.44302405040084	0.023062176863561108
1.4440240670677846	0.02444152734501377
1.445024083734729	0.02590475839766196
1.4460241004016734	0.02741147502464291
1.447024117068618	0.02892127523500349
1.4480241337355624	0.03039375004369883
1.4490241504025068	0.031788483471594534
1.4500241670694514	0.033065052545464144
1.4510241837363957	0.034188345242116086
1.4520242004033401	0.03516483638943947
1.4530242170702847	0.036020572070879914
1.454024233737229	0.0367817056494277
1.4550242504041735	0.03747438349398356
1.4560242670711179	0.03812474497935642
1.4570242837380625	0.0387589224862648
1.4580243004050069	0.03940304140133595
1.4590243170719512	0.040083220117107424
1.4600243337388958	0.04082557003202411
1.4610243504058402	0.041655749650508785
1.4620243670727846	0.04259590585354678
1.4630243837397292	0.0436665219980652
1.4640244004066736	0.04488806460917259
1.465024417073618	0.04628099321788814
1.4660244337405626	0.04786576036113871
1.467024450407507	0.049662811581762
1.4680244670744513	0.05169258542850287
1.4690244837413957	0.05397551345601758
1.4700245004083403	0.05653202022486935
1.4710245170752847	0.059376955598860796
1.472024533742229	0.062481187789481536
1.4730245504091737	0.0657947056827221
1.474024567076118	0.06926736506555108
1.4750245837430624	0.07284901473084843
1.476024600410007	0.07648949647740162
1.4770246170769514	0.08013864510990866
1.4780246337438958	0.08374628843897534
1.4790246504108404	0.08726224728111825
1.4800246670777848	0.090636335458761
1.4810246837447292	0.0938259795168938
1.4820247004116736	0.0968490758894053
1.4830247170786182	0.0997523389319667
1.4840247337455625	0.10258265315490551
1.485024750412507	0.10538952248856559
1.4860247670794515	0.1082366368669301
1.487024783746396	0.11116637515864285
1.4880248004133403	0.1142165460673793
1.489024817080285	0.11742501671895422
1.4900248337472293	0.12082971266131706
1.4910248504141737	0.12446459106389743
1.4920248670811183	0.12833155034944413
1.4930248837480626	0.13241717555514967
1.494024900415007	0.1367080140570167
1.4950249170819514	0.14119067165318908
1.496024933748896	0.1458518125639437
1.4970249504158404	0.1506781594316981
1.4980249670827848	0.1556564933210029
1.4990249837497294	0.1607736537185497
1.5000250004166737	0.16601653853316303
1.5010250170836181	0.1713705111780227
1.5020250337505627	0.17680822617686592
1.5030250504175071	0.1822962586942743
1.5040250670844515	0.18780116896277088
1.5050250837513959	0.19328954310762625
1.5060251004183405	0.1987280243966089
1.5070251170852849	0.20408331451962833
1.5080251337522292	0.20932217358872826
1.5090251504191738	0.2144114201380919
1.5100251670861182	0.21931793112403608
1.5110251837530626	0.22401309583356271
1.5120252004200072	0.22850423589362498
1.5130252170869516	0.23281604470814857
1.514025233753896	0.23697338600722098
1.5150252504208406	0.2410011819430712
1.516025267087785	0.24492441309005983
1.5170252837547293	0.24876811844469024
1.5180253004216737	0.25255739542559763
1.5190253170886183	0.2563173998735579
1.5200253337555627	0.26007334605148114
1.521025350422507	0.2638460799978991
1.5220253670894517	0.26762067622025465
1.523025383756396	0.27136490346474534
1.5240254004233404	0.2750464747936214
1.525025417090285	0.2786331616912723
1.5260254337572294	0.2820927940642215
1.5270254504241738	0.2853932602411331
1.5280254670911184	0.28850250697280455
1.5290254837580628	0.2913885394321732
1.5300255004250072	0.29401942121431085
1.5310255170919516	0.29636793399617845
1.5320255337588962	0.29844481986335275
1.5330255504258405	0.3002793241550696
1.534025567092785	0.3019008738484437
1.5350255837597295	0.3033389543427279
1.536025600426674	0.30462310945931115
1.5370256170936183	0.3057829414417198
1.538025633760563	0.30684811095561754
1.5390256504275073	0.3078483370888041
1.5400256670944517	0.30881339735121693
1.5410256837613963	0.3097661651350371
1.5420257004283406	0.31067265887987694
1.543025717095285	0.31147114355408967
1.5440257337622294	0.31209975370249854
1.545025750429174	0.31249668229206373
1.5460257670961184	0.31260018071188267
1.5470257837630628	0.3123485587731897
1.5480258004300074	0.31167953675304766
1.5490258170969518	0.3105206410163781
1.5500258337638961	0.3088181506297435
1.5510258504308407	0.30653620874085097
1.5520258670977851	0.3037234661721613
1.5530258837647295	0.3004699476219026
1.554025900431674	0.2968657794581729
1.5550259170986185	0.29300090292159336
1.5560259337655629	0.2889650741253015
1.5570259504325072	0.2848478640549576
1.5580259670994518	0.2807386585687394
1.5590259837663962	0.2767266583973463
1.5600260004333406	0.2729008791439951
1.5610260171002852	0.26933831711500317
1.5620260337672296	0.2660180890668286
1.563026050434174	0.2628709884446533
1.5640260671011186	0.25982728598162885
1.565026083768063	0.25681706728343023
1.5660261004350073	0.25377023282824757
1.567026117101952	0.250616497966796
1.5680261337688963	0.24728539292230522
1.5690261504358407	0.2437062627905289
1.570026167102785	0.2398082675397369
1.5710261837697297	0.23553076753181934
1.572026200436674	0.23089909821941476
1.5730262171036185	0.22598104106766306
1.574026233770563	0.2208444961896369
1.5750262504375074	0.2155571785709334
1.5760262671044518	0.21018661806966477
1.5770262837713964	0.20480015941646793
1.5780263004383408	0.19946496221449428
1.5790263171052852	0.19424800093941988
1.5800263337722296	0.1892160649394362
1.5810263504391742	0.184427952965087
1.5820263671061185	0.17987720176840488
1.583026383773063	0.1755248299769967
1.5840264004400075	0.17133143701593706
1.585026417106952	0.16725743718282457
1.5860264337738963	0.16326305964777366
1.587026450440841	0.15930834845342232
1.5880264671077853	0.1553531625149238
1.5890264837747297	0.15135717561995624
1.5900265004416743	0.14727987642871224
1.5910265171086186	0.14308605780587233
1.592026533775563	0.13878632123577747
1.5930265504425074	0.13441402955960915
1.594026567109452	0.13000252924740854
1.5950265837763964	0.12558498164174117
1.5960266004433408	0.12119436295768801
1.5970266171102854	0.11686346428285349
1.5980266337772298	0.11262489157735875
1.5990266504441741	0.10851106567384741
1.6000266671111187	0.10455422227747996
1.6010266837780631	0.10078294663110325
1.6020267004450075	0.09719645928379039
1.603026717111952	0.09377917819932623
1.6040267337788965	0.09051526392996015
1.6050267504458409	0.08738874582732498
1.6060267671127852	0.08438347211026669
1.6070267837797299	0.0814831027236789
1.6080268004466742	0.07867111050283347
1.6090268171136186	0.07593078312457312
1.6100268337805632	0.07324522313825799
1.6110268504475076	0.07059925313181091
1.612026867114452	0.06799363273346225
1.6130268837813966	0.06543704668409542
1.614026900448341	0.06293805612950305
1.6150269171152853	0.0605050370880002
1.61602693378223	0.058146180450418805
1.6170269504491743	0.0558694919801133
1.6180269671161187	0.05368279231295524
1.619026983783063	0.051593716957338415
1.6200270004500077	0.049642940004998894
1.621027017116952	0.04791726102317005
1.6220270337838965	0.04639035884288285
1.623027050450841	0.04502600702612194
1.6240270671177854	0.04378907583048667
1.6250270837847298	0.04264556813926763
1.6260271004516744	0.04156261946144455
1.6270271171186188	0.04050849793168833
1.6280271337855632	0.039452604310359136
1.6290271504525078	0.03836547198350829
1.6300271671194522	0.037218766962876015
1.6310271837863966	0.03598627222698392
1.632027200453341	0.03465131652163053
1.6330272171202855	0.03320262855718761
1.63402723378723	0.03163010305585908
1.6350272504541743	0.02992476736554016
1.636027267121119	0.028078781459815134
1.6370272837880633	0.0260854379379597
1.6380273004550077	0.02393916202493806
1.6390273171219523	0.0216355115714067
1.6400273337888966	0.019171177053709913
1.641027350455841	0.01654278771362005
1.6420273671227856	0.013737850525813881
1.64302738378973	0.010739782057247443
1.6440274004566744	0.007533090011579628
1.6450274171236188	0.004103414718162363
1.6460274337905634	0.0004375291320345698
1.6470274504575078	-0.0034766611660710864
1.6480274671244521	-0.007650117969735531
1.6490274837913967	-0.012092670446845966
1.6500275004583411	-0.016813015139602976
1.6510275171252855	-0.021817307517424982
1.65202753379223	-0.027098411757841473
1.6530275504591745	-0.032641841146468516
1.6540275671261189	-0.038431926197359564
1.6550275837930633	-0.04445186479887286
1.6560276004600079	-0.0506837222136816
1.6570276171269522	-0.05710843107876378
1.6580276337938966	-0.06370579140541233
1.6590276504608412	-0.07045447057922469
1.6600276671277856	-0.07733200336011353
1.66102768379473	-0.08431646074257455
1.6620277004616746	-0.09139926000653058
1.663027717128619	-0.09857812130192896
1.6640277337955633	-0.10584969302080219
1.665027750462508	-0.11327117935379473
1.6660277671294523	-0.121203639143623
1.6670277837963967	-0.12943703315862595
1.668027800463341	-0.137659801282753
1.6690278171302857	-0.14557904714352649
1.67002783379723	-0.15292053811202777
1.6710278504641745	-0.15942640916502535
1.672027867131119	-0.16483743795740421
1.6730278837980634	-0.16890274182044102
1.6740279004650078	-0.17139001604700765
1.6750279171319524	-0.17208561967354483
1.6760279337988968	-0.17079457548005778
1.6770279504658412	-0.16734056999011734
1.6780279671327858	-0.16156595347086233
1.6790279837997302	-0.15333173993299343
1.6800280004666746	-0.14251760713078346
1.681028017133619	-0.12902577510971042
1.6820280338005635	-0.11281111635010665
1.683028050467508	-0.09386476602168925
1.6840280671344523	-0.07219667144540926
1.685028083801397	-0.04783544368576585
1.6860281004683413	-0.020828357550844587
1.6870281171352857	0.008758648407726168
1.6880281338022303	0.0408409718947269
1.6890281504691746	0.0753153468713993
1.690028167136119	0.11205984355538968
1.6910281838030636	0.15093990313921762
1.692028200470008	0.19185545282187766
1.6930282171369524	0.23471538988262297
1.6940282338038968	0.2794101843359952
1.6950282504708414	0.32581164245301025
1.6960282671377858	0.37377290676107744
1.6970282838047301	0.42312845604408056
1.6980283004716747	0.47369410534229717
1.6990283171386191	0.5252670059524805
1.7000283338055635	0.5776256454277741
1.701028350472508	0.6305230850779527
1.7020283671394525	0.6836338629495712
1.7030283838063969	0.7365826025875066
1.7040284004733415	0.7889749741827248
1.7050284171402859	0.8403979423477737
1.7060284338072302	0.8904198021128834
1.7070284504741746	0.9384891233301391
1.7080284671411192	0.983715062093227
1.7090284838080636	1.0254839922438312
1.710028500475008	1.063265278293386
1.7110285171419526	1.0965893430367497
1.712028533808897	1.125094267337556
1.7130285504758413	1.1485008109741341
1.714028567142786	1.166585133031462
1.7150285838097303	1.1791785494243645
1.7160286004766747	1.1861675328974768
1.7170286171436193	1.1874937130252694
1.7180286338105637	1.183153876212035
1.719028650477508	1.1731999656918908
1.7200286671444525	1.157739081528786
1.721028683811397	1.1369270504357407
1.7220287004783414	1.11091736212858
1.7230287171452858	1.0798883997695643
1.7240287338122304	1.0440734328532997
1.7250287504791748	1.0037608877041855
1.7260287671461192	0.9592943474764833
1.7270287838130638	0.911072552154242
1.7280288004800082	0.8595493985513777
1.7290288171469526	0.8052339403115876
1.730028833813897	0.7486903879084419
1.7310288504808415	0.690546216241936
1.732028867147786	0.6315569155967301
1.7330288838147303	0.5723697104963166
1.734028900481675	0.5131963679488701
1.7350289171486193	0.4544486178106898
1.7360289338155637	0.39652536650874
1.7370289504825083	0.33980139513019153
1.7380289671494527	0.28462735942252
1.739028983816397	0.23132978979340615
1.7400290004833416	0.1802110913108345
1.741029017150286	0.13154232501073268
1.7420290338172304	0.08550522769220646
1.7430290504841748	0.042222808714770715
1.7440290671511194	0.0017936338686099923
1.7450290838180638	-0.035707856395873525
1.7460291004850081	-0.07023134696798763
1.7470291171519527	-0.10175064807681694
1.7480291338188971	-0.13026369529116164
1.7490291504858415	-0.15579254951959343
1.7500291671527861	-0.1783833970104043
1.7510291838197305	-0.19810264684017098
1.7520292004866749	-0.21500540742186042
1.7530292171536195	-0.22915203407995235
1.7540292338205639	-0.24062683138629984
1.7550292504875082	-0.24953822925251098
1.7560292671544526	-0.25601878292993097
1.7570292838213972	-0.2602251730096556
1.7580293004883416	-0.26233820542252184
1.759029317155286	-0.26238237149697147
1.7600293338222306	-0.26034613541450946
1.761029350489175	-0.2564440599080307
1.7620293671561194	-0.25088776606070357
1.763029383823064	-0.2438820306182685
1.7640294004900083	-0.23562135435211334
1.7650294171569527	-0.22628992928739242
1.7660294338238973	-0.21606163870304107
1.7670294504908417	-0.20510005713175902
1.768029467157786	-0.19355845036002864
1.7690294838247305	-0.18157977542809545
1.770029500491675	-0.16929668062998846
1.7710295171586194	-0.1568334547670886
1.7720295338255638	-0.14432195296377157
1.7730295504925084	-0.1318933255808183
1.7740295671594528	-0.1196685063587883
1.7750295838263972	-0.10775812029200439
1.7760296004933418	-0.09626248362857241
1.7770296171602862	-0.08527160387036113
1.7780296338272306	-0.07486517977302283
1.7790296504941752	-0.06511260134597287
1.7800296671611195	-0.05607294985240927
1.781029683828064	-0.04779119809089334
1.7820297004950083	-0.04026698851103268
1.783029717161953	-0.03347076106671004
1.7840297338288973	-0.027362463197731127
1.7850297504958417	-0.021891733597669327
1.7860297671627863	-0.016997902213876082
1.7870297838297307	-0.012609990247471576
1.788029800496675	-0.008646710153353106
1.7890298171636196	-0.0050164656401872
1.790029833830564	-0.0016213497661035654
1.7910298504975084	0.001585716624808331
1.792029867164453	0.004618189251980327
1.7930298838313974	0.007478436270848134
1.7940299004983418	0.010167730191274878
1.7950299171652861	0.012686430740603261
1.7960299338322308	0.015033984863659412
1.7970299504991751	0.01720892672274872
1.7980299671661195	0.01920887769765965
1.7990299838330641	0.02103054638566019
1.8000300005000085	0.022669728601500884
1.8010300171669529	0.024123552340127294
1.8020300338338975	0.025409136038874545
1.8030300505008419	0.026554055065545548
1.8040300671677862	0.027585090157215116
1.8050300838347306	0.02852812591510687
1.8060301005016752	0.029408138018297766
1.8070301171686196	0.03024918994433161
1.808030133835564	0.031074434643278775
1.8090301505025086	0.0319061128297338
1.810030167169453	0.032765552435773074
1.8110301838363974	0.03367129520198403
1.812030200503342	0.03462343729200058
1.8130302171702863	0.03561158655461205
1.8140302338372307	0.03662434101592298
1.8150302505041753	0.037649385919517823
1.8160302671711197	0.03867349372646306
1.817030283838064	0.03968252411530612
1.8180303005050085	0.040661423982075805
1.819030317171953	0.04159422744028174
1.8200303338388975	0.04246405582091546
1.8210303505058418	0.04325609547163664
1.8220303671727864	0.04398263113984043
1.8230303838397308	0.0446703957321414
1.8240304005066752	0.045345367162405295
1.8250304171736198	0.04603261056197762
1.8260304338405642	0.046756278279686446
1.8270304505075086	0.04753960988183986
1.8280304671744532	0.04840493215222837
1.8290304838413975	0.04937365909212249
1.830030500508342	0.05048111534718954
1.8310305171752863	0.05177174856976274
1.832030533842231	0.05325067347054072
1.8330305505091753	0.05491045505922917
1.8340305671761197	0.05674349388369672
1.8350305838430643	0.05874215495617544
1.8360306005100087	0.060898767753263916
1.837030617176953	0.06320562621592396
1.8380306338438976	0.06565498874948392
1.839030650510842	0.06823907822363569
1.8400306671777864	0.07095008197243707
1.841030683844731	0.07377856426170282
1.8420307005116754	0.07669996681587599
1.8430307171786198	0.07968135448374512
1.8440307338455642	0.08268966856803131
1.8450307505125088	0.0856918148358184
1.8460307671794531	0.088654663518557
1.8470307838463975	0.09154504931206123
1.8480308005133421	0.09432977137651148
1.8490308171802865	0.09697559333645146
1.8500308338472309	0.09944924328079166
1.8510308505141755	0.10172230999139943
1.8520308671811199	0.1038131168917378
1.8530308838480642	0.10576591598590165
1.8540309005150089	0.10762520135399753
1.8550309171819532	0.10943543154049394
1.8560309338488976	0.11124102955422739
1.857030950515842	0.11308638286839644
1.8580309671827866	0.11501584342056682
1.859030983849731	0.11707372761266767
1.8600310005166754	0.11930431631099436
1.86103101718362	0.12174803318991893
1.8620310338505643	0.12440857289342491
1.8630310505175087	0.12726914118101562
1.8640310671844533	0.13031268668171836
1.8650310838513977	0.13352212248892328
1.866031100518342	0.1368803261603875
1.8670311171852865	0.14037013971823054
1.868031133852231	0.14397436964893967
1.8690311505191755	0.14767578690336425
1.8700311671861198	0.1514571268967214
1.8710311838530644	0.15530207415572994
1.8720312005200088	0.15920378046766537
1.8730312171869532	0.1631626074161878
1.8740312338538978	0.16719185237483447
1.8750312505208422	0.17129103351640088
1.8760312671877866	0.1754560892203861
1.8770312838547312	0.179682968581219
1.8780313005216756	0.18396763140826583
1.87903131718862	0.18830604822582359
1.8800313338555643	0.19269420027312661
1.881031350522509	0.1971281035517606
1.8820313671894533	0.20160401805738246
1.8830313838563977	0.20611834559677056
1.8840314005233423	0.2106675001495994
1.8850314171902867	0.21524790641047303
1.886031433857231	0.21985599978893336
1.8870314505241756	0.22448822640945265
1.88803146719112	0.22914104311144037
1.8890314838580644	0.23381091744923632
1.890031500525009	0.2384943276921179
1.8910315171919534	0.2431877406420873
1.8920315338588978	0.2478874175183718
1.8930315505258422	0.25258950820615084
1.8940315671927868	0.2572901719304927
1.8950315838597311	0.26198557863139516
1.8960316005266755	0.26667190896379417
1.8970316171936201	0.27134535429755513
1.8980316338605645	0.27600211671748204
1.8990316505275089	0.2806384090233076
1.9000316671944535	0.2852504547297036
1.9010316838613979	0.28983458456247213
1.9020317005283423	0.2943880857650806
1.9030317171952869	0.29890879215413135
1.9040317338622312	0.3033945528684823
1.9050317505291756	0.3078432185301039
1.90603176719612	0.31225264698414534
1.9070317838630646	0.31662070678414167
1.908031800530009	0.32094527719856575
1.9090318171969534	0.3252242482108203
1.910031833863898	0.32945552051924565
1.9110318505308423	0.33363799488732465
1.9120318671977867	0.3377803301497234
1.9130318838647313	0.3418967408663432
1.9140319005316757	0.34600151641030313
1.91503191719862	0.35010895686965215
1.9160319338655647	0.35423337304737684
1.917031950532509	0.35838908646139367
1.9180319671994535	0.3625904293445573
1.9190319838663978	0.3668517446446519
1.9200320005333424	0.3711873860243989
1.9210320172002868	0.37560900045584444
1.9220320338672312	0.38010133393216483
1.9230320505341758	0.38463377146362104
1.9240320672011202	0.3891755288067092
1.9250320838680646	0.3936958324328633
1.9260321005350092	0.39816391952844726
1.9270321172019536	0.4025490379947628
1.928032133868898	0.4068204464480414
1.9290321505358425	0.41094741421945213
1.930032167202787	0.4148992213550952
1.9310321838697313	0.418647974396019
1.9320322005366757	0.4221938215874237
1.9330322172036203	0.4255529980974409
1.9340322338705647	0.4287419404244711
1.935032250537509	0.43177709578185086
1.9360322672044536	0.434674922097848
1.937032283871398	0.437451888015667
1.9380323005383424	0.44012447289344364
1.939032317205287	0.4427091668042498
1.9400323338722314	0.4452224705360891
1.9410323505391758	0.4476792492663542
1.9420323672061202	0.4500779043988212
1.9430323838730648	0.4524073612330457
1.9440324005400091	0.4546564418733998
1.9450324172069535	0.4568139791391925
1.9460324338738981	0.4588688165646643
1.9470324505408425	0.46080980839899105
1.9480324672077869	0.4626258196062818
1.9490324838747315	0.4643057258655797
1.9500325005416759	0.4658384135708612
1.9510325172086203	0.4672143722575213
1.9520325338755649	0.4684401204434521
1.9530325505425092	0.46953144897859855
1.9540325672094536	0.47050427203464096
1.955032583876398	0.4713745144981946
1.9560326005433426	0.4721581119708079
1.957032617210287	0.4728710107689641
1.9580326338772314	0.4735291679240786
1.959032650544176	0.4741485511825025
1.9600326672111203	0.47474513900551973
1.9610326838780647	0.47533194350526997
1.9620327005450093	0.4758918846532098
1.9630327172119537	0.47639041718998404
1.964032733878898	0.4767927914299253
1.9650327505458427	0.4770642684022994
1.966032767212787	0.4771692561393604
1.9670327838797315	0.4770670958161234
1.9680328005466758	0.4767260976532505
1.9690328172136204	0.4761166500066975
1.9700328338805648	0.475209127086522
1.9710328505475092	0.4739776031277295
1.9720328672144538	0.47243389093604915
1.9730328838813982	0.4706117952181892
1.9740329005483426	0.4685453808184114
1.9750329172152872	0.4662686984350768
1.9760329338822316	0.4638157846206468
1.977032950549176	0.4612206617816829
1.9780329672161205	0.45851733817884804
1.979032983883065	0.4557398079269033
1.9800330005500093	0.4529220509947126
1.9810330172169537	0.4500953238966631
1.9820330338838983	0.4472631858769653
1.9830330505508427	0.4444129800242291
1.984033067217787	0.4415318308388618
1.9850330838847317	0.4386068486753691
1.986033100551676	0.43562512974235945
1.9870331172186204	0.4325737561025386
1.988033133885565	0.4294397956727155
1.9890331505525094	0.4262103022237967
1.9900331672194538	0.4228723153807916
1.9910331838863984	0.41941432594619066
1.9920332005533428	0.41583986152673263
1.9930332172202871	0.41216128015470027
1.9940332338872315	0.4083910386942613
1.9950332505541761	0.40454157986368106
1.9960332672211205	0.4006253322353276
1.997033283888065	0.3966547102356666
1.9980333005550095	0.3926421141452673
1.9990333172219539	0.38859993009879534
2.0000333338888985	0.38454053008502104
2.0010333505558426	0.3804744706229052
2.0020333672227872	0.3763936946575277
2.003033383889732	0.3722791568430553
2.004033400556676	0.36811165696848147
2.0050334172236206	0.36387199306741813
2.006033433890565	0.3595409564466755
2.0070334505575094	0.35509932435192987
2.008033467224454	0.35052785902585387
2.0090334838913986	0.3458073072756369
2.0100335005583427	0.34091840165606185
2.0110335172252873	0.335845599501398
2.0120335338922315	0.3306121532694496
2.013033550559176	0.3252642925943417
2.0140335672261207	0.31984853386307954
2.015033583893065	0.31441137931677526
2.0160336005600095	0.3089993170506346
2.017033617226954	0.3036588210139654
2.0180336338938982	0.2984363510101745
2.019033650560843	0.2933783526967746
2.0200336672277874	0.28853125758537257
2.0210336838947316	0.28393514542805876
2.022033700561676	0.2795639517728489
2.023033717228621	0.27535226259130235
2.024033733895565	0.2712341286740793
2.0250337505625096	0.2671435866659421
2.026033767229454	0.26301465906575067
2.0270337838963983	0.2587813542264728
2.028033800563343	0.2543776663551689
2.0290338172302875	0.24973757551300285
2.0300338338972317	0.24479504761523566
2.0310338505641763	0.23949195969725584
2.032033867231121	0.23385330795981285
2.033033883898065	0.22795372405857764
2.0340339005650097	0.2218684910776919
2.0350339172319543	0.21567287795540319
2.0360339338988984	0.20944213948405416
2.037033950565843	0.2032515163100882
2.038033967232787	0.19717623493404868
2.039033983899732	0.19129150771058476
2.0400340005666764	0.18567253284843904
2.0410340172336205	0.18038829461367745
2.042034033900565	0.17544238531148126
2.0430340505675098	0.17079917950347803
2.044034067234454	0.16642250577120196
2.0450340839013985	0.16227617855028922
2.046034100568343	0.15832399813047401
2.0470341172352873	0.15452975065559676
2.048034133902232	0.15085720812359305
2.0490341505691765	0.14727012838649978
2.0500341672361206	0.14373225515045415
2.0510341839030652	0.1402093236053113
2.05203420057001	0.1366883165475107
2.053034217236954	0.13316900376579544
2.0540342339038986	0.1296513166307701
2.055034250570843	0.12613517236713653
2.0560342672377874	0.12262047405370335
2.057034283904732	0.1191071106233737
2.0580343005716766	0.11559495686315231
2.0590343172386207	0.1120835702943375
2.0600343339055653	0.10856907245428651
2.0610343505725095	0.1050486950876729
2.062034367239454	0.10152525984106708
2.0630343839063987	0.0980046179580678
2.064034400573343	0.09449266078540355
2.0650344172402875	0.09099527766363978
2.066034433907232	0.0875183559271852
2.0670344505741762	0.0840677809042889
2.068034467241121	0.08064943591704576
2.0690344839080654	0.07726920228138864
2.0700345005750096	0.07393295930709291
2.071034517241954	0.07064760672540249
2.072034533908899	0.06743099651349606
2.073034550575843	0.06430762735863856
2.0740345672427876	0.06130208938123253
2.075034583909732	0.05843897069552044
2.0760346005766763	0.055742857409590583
2.077034617243621	0.053238333625369165
2.0780346339105655	0.05094998143862558
2.0790346505775097	0.048902380938969585
2.0800346672444543	0.04712011020985624
2.081034683911399	0.04562316494957225
2.082034700578343	0.044382203515624365
2.0830347172452877	0.04333781701834533
2.0840347339122323	0.04243016708216597
2.0850347505791764	0.041599413325356216
2.086034767246121	0.04078571336002936
2.087034783913065	0.03992922279213877
2.08803480058001	0.03897009522148297
2.0890348172469544	0.03784848224169879
2.0900348339138985	0.03650453344026582
2.091034850580843	0.03488426112686072
2.0920348672477878	0.03299718161608135
2.093034883914732	0.030891666477071405
2.0940349005816765	0.028616644200037615
2.095034917248621	0.026221041269027592
2.0960349339155653	0.023753782161933492
2.09703495058251	0.021263789350485916
2.0980349672494545	0.01879998330025903
2.0990349839163986	0.016411282470667147
2.1000350005833432	0.014146603314969003
2.101035017250288	0.012052205800745857
2.102035033917232	0.010145450382742222
2.1030350505841766	0.008425942677229365
2.104035067251121	0.006893026960652699
2.1050350839180654	0.005546025080950894
2.10603510058501	0.004384237956548555
2.1070351172519546	0.0034069637853963155
2.1080351339188987	0.002613498759288317
2.1090351505858433	0.002003137063858393
2.110035167252788	0.0015751708785834645
2.111035183919732	0.0013264663010593065
2.1120352005866767	0.0012273569460551472
2.113035217253621	0.0012318099702087705
2.1140352339205655	0.0012935496613239155
2.11503525058751	0.0013662983010465984
2.1160352672544542	0.0014037761648648902
2.117035283921399	0.0013597015221077013
2.1180353005883434	0.001187790635946314
2.1190353172552876	0.0008417577633932386
2.120035333922232	0.00027531515530357115
2.121035350589177	-0.0005514708343064764
2.122035367256121	-0.0016085980604551944
2.1230353839230656	-0.002822753539899192
2.12403540059001	-0.004119981476247677
2.1250354172569543	-0.0054263280792688495
2.126035433923899	-0.006667841564889684
2.1270354505908435	-0.00777057215519481
2.1280354672577877	-0.008660572078426756
2.1290354839247323	-0.009263895568987096
2.130035500591677	-0.009506598867435363
2.131035517258621	-0.009323380954147907
2.1320355339255657	-0.008744529368365166
2.1330355505925103	-0.007859769592573007
2.1340355672594544	-0.006759724063731894
2.135035583926399	-0.005535017224962095
2.136035600593343	-0.004276275525541647
2.137035617260288	-0.0030741274209060716
2.1380356339272324	-0.0020192033726501094
2.1390356505941766	-0.001202135848526938
2.140035667261121	-0.0007135593224467159
2.1410356839280658	-0.0006357708618294974
2.14203570059501	-0.0009583201354302472
2.1430357172619545	-0.00161285459679247
2.144035733928899	-0.0025301419239158653
2.1450357505958433	-0.0036409518009591912
2.146035767262788	-0.004876055918239138
2.1470357839297325	-0.006166227972230362
2.1480358005966766	-0.007442243665566405
2.1490358172636213	-0.008633837326244422
2.150035833930566	-0.009669610261189511
2.15103585059751	-0.010484587717752373
2.1520358672644546	-0.011067918180970568
2.153035883931399	-0.01144265274158454
2.1540359005983434	-0.011632360749863433
2.155035917265288	-0.011660607646970952
2.1560359339322326	-0.011550954964964168
2.1570359505991767	-0.0113269603267942
2.1580359672661213	-0.011012177446306174
2.159035983933066	-0.010630156128238786
2.16003600060001	-0.010204442268225098
2.1610360172669547	-0.009757844588896225
2.162036033933899	-0.009304924496774981
2.1630360506008435	-0.008855051523723663
2.164036067267788	-0.008417510498982067
2.1650360839347322	-0.00800158234268422
2.166036100601677	-0.007616544065857746
2.1670361172686214	-0.00727166877042443
2.1680361339355656	-0.006976225649200067
2.16903615060251	-0.00673947998589357
2.170036167269455	-0.006570693155108517
2.171036183936399	-0.0064780586813922535
2.1720362006033436	-0.006457740620221036
2.173036217270288	-0.006498300403449395
2.1740362339372323	-0.006588175894481686
2.175036250604177	-0.006715801047615736
2.1760362672711215	-0.006869605908043461
2.1770362839380657	-0.007038016611850657
2.1780363006050103	-0.007209455386016899
2.179036317271955	-0.007372340548415641
2.180036333938899	-0.007515086507814305
2.1810363506058437	-0.007626898421664392
2.1820363672727883	-0.007706008069113191
2.1830363839397324	-0.00775637249169966
2.184036400606677	-0.007782036044132731
2.1850364172736216	-0.007787039172015432
2.186036433940566	-0.007775418411844544
2.1870364506075104	-0.007751206391010766
2.1880364672744546	-0.007718431827798706
2.189036483941399	-0.007681119531386816
2.1900365006083438	-0.007643290401847406
2.191036517275288	-0.0076088297638185285
2.1920365339422325	-0.007580114653904112
2.193036550609177	-0.007558559949748295
2.1940365672761213	-0.007545561193431261
2.195036583943066	-0.007542510017927179
2.1960366006100105	-0.007550794147104052
2.1970366172769547	-0.007571797395723654
2.1980366339438993	-0.007606899669441761
2.199036650610844	-0.007657476964808105
2.200036667277788	-0.007724901369266023
2.2010366839447326	-0.007809725948271942
2.2020367006116772	-0.00790313602384916
2.2030367172786214	-0.00799032451690326
2.204036733945566	-0.008056382367759195
2.2050367506125106	-0.008086367226067816
2.2060367672794547	-0.008065290852119392
2.2070367839463993	-0.007978157872261953
2.208036800613344	-0.007809968815996544
2.209036817280288	-0.007545718215570197
2.2100368339472327	-0.007170395390417621
2.211036850614177	-0.006670625002592852
2.2120368672811215	-0.00605196189403078
2.213036883948066	-0.005332114648336444
2.2140369006150102	-0.004528987982448199
2.215036917281955	-0.0036604827041975107
2.2160369339488994	-0.0027444957123104255
2.2170369506158436	-0.0017989199964062418
2.218036967282788	-0.0008416446369987098
2.219036983949733	0.00010944519450457185
2.220037000616677	0.0010364682358030113
2.2210370172836216	0.001921343493285526
2.222037033950566	0.0027436289478355615
2.2230370506175103	0.0034813618570089765
2.224037067284455	0.004112558027728051
2.2250370839513995	0.004615237176021407
2.2260371006183437	0.004967422927024311
2.2270371172852883	0.005147142814977669
2.228037133952233	0.005132428283228647
2.229037150619177	0.004901314684230745
2.2300371672861217	0.0044318412795432555
2.2310371839530663	0.00370558533804953
2.2320372006200104	0.002745394722971802
2.233037217286955	0.0016014805148835583
2.2340372339538996	0.0003246442151154487
2.235037250620844	-0.0010354753258798276
2.2360372672877884	-0.0024292315328585928
2.2370372839547326	-0.003806956336992161
2.238037300621677	-0.0051189601758689085
2.2390373172886218	-0.006315531993494392
2.240037333955566	-0.0073469392402898005
2.2410373506225105	-0.008167093073703256
2.242037367289455	-0.008772914877587572
2.2430373839563993	-0.009189269494999364
2.244037400623344	-0.009441475543237918
2.2450374172902885	-0.009554830146018142
2.2460374339572327	-0.00955460893347215
2.2470374506241773	-0.009466066042147994
2.248037467291122	-0.009314434115010586
2.249037483958066	-0.009124924301441363
2.2500375006250106	-0.00892272625723807
2.2510375172919552	-0.008731796256535663
2.2520375339588994	-0.008561762768953866
2.253037550625844	-0.008412898257668744
2.2540375672927886	-0.008285293347794567
2.2550375839597327	-0.008179017170862475
2.2560376006266774	-0.008094117364819941
2.257037617293622	-0.008030620074030858
2.258037633960566	-0.007988529949275815
2.2590376506275107	-0.007967830147751837
2.2600376672944553	-0.007968482333072294
2.2610376839613995	-0.007990192834025385
2.262037700628344	-0.008029870835947998
2.2630377172952882	-0.00808258572619899
2.264037733962233	-0.008143353830749626
2.2650377506291774	-0.008207169981987488
2.2660377672961216	-0.008269007518716582
2.267037783963066	-0.008323818286157601
2.268037800630011	-0.008366532635947449
2.269037817296955	-0.008392059426139914
2.2700378339638996	-0.008395286021205012
2.271037850630844	-0.008371644012249622
2.2720378672977883	-0.008323295427331972
2.273037883964733	-0.008256821660918262
2.2740379006316775	-0.008178860531918842
2.2750379172986217	-0.00809602836566109
2.2760379339655663	-0.008014919993888222
2.277037950632511	-0.007942108754760462
2.278037967299455	-0.007884146492854387
2.2790379839663997	-0.00784756355916314
2.2800380006333443	-0.00783886881109606
2.2810380173002884	-0.007863731727898497
2.282038033967233	-0.00791798495698693
2.2830380506341776	-0.007990958071952853
2.284038067301122	-0.008071844225634835
2.2850380839680664	-0.008149815077288375
2.2860381006350106	-0.008214020792584788
2.287038117301955	-0.008253590043612376
2.2880381339688998	-0.008257630008875732
2.289038150635844	-0.008215226373296185
2.2900381673027885	-0.008115443328211146
2.291038183969733	-0.007948187314426675
2.2920382006366773	-0.007713766192482066
2.293038217303622	-0.007419376687963167
2.2940382339705665	-0.007072317853045244
2.2950382506375107	-0.006679867246319875
2.2960382673044553	-0.0062492809327950325
2.2970382839714	-0.005788460702802573
2.298038300638344	-0.0053170586353278645
2.2990383173052886	-0.004844151871698187
2.3000383339722332	-0.004373327965196789
2.3010383506391774	-0.003907624046283001
2.302038367306122	-0.003441843813612602
2.3030383839730666	-0.0029653570596193026
2.3040384006400108	-0.0024675724275380596
2.3050384173069554	-0.0019380665032145525
2.3060384339739	-0.0013666189049538046
2.307038450640844	-0.0007431574992770454
2.3080384673077887	-5.774978571079954e-05
2.3090384839747333	0.0006993971032132952
2.3100385006416775	0.0015379364019573118
2.311038517308622	0.0024667277630808673
2.3120385339755662	0.0034865122866439974
2.313038550642511	0.004592559009652454
2.3140385673094555	0.005779899781207146
2.3150385839763996	0.007043426817404998
2.316038600643344	0.008377892701337299
2.317038617310289	0.009777910383090598
2.318038633977233	0.01123795317974434
2.3190386506441776	0.012752354775374357
2.320038667311122	0.014315309221050761
2.3210386839780663	0.015921782460417835
2.322038700645011	0.01757778419726948
2.3230387173119555	0.019296688427375898
2.3240387339788997	0.021091868220027357
2.3250387506458443	0.022976557011509857
2.326038767312789	0.024963848605101157
2.327038783979733	0.027066697171076504
2.3280388006466777	0.029297917246705163
2.3290388173136223	0.031670183736251696
2.3300388339805664	0.0341960319109726
2.331038850647511	0.03688647865707269
2.3320388673144556	0.0397353914041143
2.3330388839814	0.042725038918926546
2.3340389006483444	0.0458373363324258
2.335038917315289	0.049054059142526335
2.336038933982233	0.05235684321413623
2.3370389506491778	0.05572718477915947
2.338038967316122	0.05914644043649071
2.3390389839830665	0.0625958271520232
2.340039000650011	0.06605642225864383
2.3410390173169553	0.06951052895635514
2.3420390339839	0.07295725102117856
2.3430390506508445	0.07640701034475632
2.3440390673177887	0.07987030536478787
2.3450390839847333	0.08335749488596912
2.346039100651678	0.08687879807998526
2.347039117318622	0.09044429448552156
2.3480391339855666	0.09406392400825614
2.3490391506525112	0.09774748692086373
2.3500391673194554	0.10150464386300828
2.3510391839864	0.10534453827705102
2.3520392006533446	0.1092714638104174
2.3530392173202888	0.11328637596391822
2.3540392339872334	0.11739002963982012
2.355039250654178	0.12158304010739003
2.356039267321122	0.12586588300288754
2.3570392839880667	0.1302388943295692
2.3580393006550113	0.13470227045767966
2.3590393173219555	0.13925606812446514
2.3600393339889	0.14390020443416404
2.3610393506558442	0.1486340367168136
2.362039367322789	0.1534569676862511
2.3630393839897335	0.15837384180443823
2.3640394006566776	0.16336721372581994
2.365039417323622	0.16841817758176225
2.366039433990567	0.17350818722318032
2.367039450657511	0.17861905622055202
2.3680394673244556	0.18373295786390875
2.3690394839914	0.18883242516283996
2.3700395006583443	0.1939003508464848
2.371039517325289	0.19892003419564502
2.3720395339922336	0.2038757250072534
2.3730395506591777	0.20875243719868308
2.3740395673261223	0.21353555227243506
2.375039583993067	0.2182108114505725
2.376039600660011	0.2227643156747123
2.3770396173269557	0.2271825256060291
2.3780396339939003	0.23145226162524837
2.3790396506608444	0.23556070383265656
2.380039667327789	0.23949539204809425
2.3810396839947336	0.24324474116026068
2.382039700661678	0.24680406351702386
2.3830397173286224	0.25017352413673494
2.384039733995567	0.2533537360269036
2.385039750662511	0.25634567191459584
2.3860397673294558	0.25915066424643046
2.3870397839964	0.26177040518858535
2.3880398006633445	0.2642069466267936
2.389039817330289	0.266462700166345
2.3900398339972333	0.2685404371320821
2.391039850664178	0.2704426794610146
2.3920398673311225	0.2721645381833651
2.3930398839980667	0.2736961225109138
2.3940399006650113	0.2750277949827648
2.395039917331956	0.2761502778575805
2.3960399339989	0.2770546531135784
2.3970399506658446	0.2777323624485322
2.3980399673327892	0.2781752072797704
2.3990399839997334	0.278375348744179
2.400040000666678	0.2783253076981989
2.4010400173336226	0.2780184499895167
2.4020400340005668	0.2774547268827026
2.4030400506675114	0.27663876206988813
2.404040067334456	0.2755756253988713
2.4050400840014	0.27427076615929097
2.4060401006683447	0.2727300647392101
2.4070401173352893	0.27095977738907284
2.4080401340022335	0.2689665200788787
2.409040150669178	0.2667572682190844
2.4100401673361227	0.2643393558672175
2.411040184003067	0.2617211346095447
2.4120402006700115	0.2589198059649342
2.4130402173369556	0.25595883601975644
2.4140402340039	0.2528621701031617
2.415040250670845	0.249654113263853
2.416040267337789	0.2463593302700904
2.4170402840047336	0.24300284560968827
2.418040300671678	0.23961004349002135
2.4190403173386223	0.2362066678380161
2.420040334005567	0.23281882230015613
2.4210403506725116	0.22946984676247653
2.4220403673394557	0.22614291446286472
2.4230403840064003	0.22279326038854372
2.424040400673345	0.21937068759965092
2.425040417340289	0.21582468613338446
2.4260404340072337	0.21211292880217242
2.4270404506741783	0.2081928789587821
2.4280404673411224	0.2040217339009939
2.429040484008067	0.19955642487159694
2.4300405006750116	0.19475361705839908
2.431040517341956	0.18957544731067466
2.4320405340089004	0.1840586538846753
2.433040550675845	0.1782921942703915
2.434040567342789	0.1723658433974359
2.4350405840097338	0.16636911014043818
2.436040600676678	0.16039123731903357
2.4370406173436225	0.15452120169787104
2.438040634010567	0.14884771398660757
2.4390406506775113	0.1434592188399196
2.440040667344456	0.13844389485748726
2.4410406840114005	0.13388206241529665
2.4420407006783447	0.1297541482160669
2.4430407173452893	0.12597019151832115
2.444040734012234	0.12243850373930668
2.445040750679178	0.11906713024128442
2.4460407673461226	0.11576385033152606
2.4470407840130672	0.11243617726231905
2.4480408006800114	0.1089913582309565
2.449040817346956	0.10533637437974591
2.4500408340139006	0.10137794079600272
2.4510408506808448	0.09702968984721355
2.4520408673477894	0.09229978705732494
2.453040884014734	0.08726312053920318
2.454040900681678	0.08199572248325401
2.4550409173486227	0.07657335902490087
2.4560409340155673	0.07107153024457293
2.4570409506825115	0.06556547016771143
2.458040967349456	0.06013014676476905
2.4590409840164007	0.05484026195121321
2.460041000683345	0.049770251587518834
2.4610410173502895	0.044990788187789996
2.4620410340172336	0.04052586090096042
2.4630410506841782	0.036366262076436666
2.464041067351123	0.03250181805863436
2.465041084018067	0.028922089136982028
2.4660411006850116	0.025616369545918286
2.467041117351956	0.02257368746489722
2.4680411340189004	0.019782805018380357
2.469041150685845	0.017232218275841645
2.4700411673527896	0.014910157251765324
2.4710411840197337	0.012802944769886882
2.4720412006866783	0.010874731395725147
2.473041217353623	0.009073798455523814
2.474041234020567	0.007347826357708476
2.4750412506875117	0.005644229455719356
2.4760412673544563	0.0039101560480048776
2.4770412840214004	0.002092488378025434
2.478041300688345	0.00013784263425266254
2.4790413173552897	-0.00200743104982813
2.480041334022234	-0.004397248595722959
2.4810413506891784	-0.0070787695388760076
2.482041367356123	-0.010004030928558921
2.483041384023067	-0.013047252757074074
2.484041400690012	-0.016093756247256924
2.4850414173569564	-0.019033517235602197
2.4860414340239005	-0.02175705820901163
2.487041450690845	-0.024155448304789013
2.4880414673577893	-0.026120303310645077
2.489041484024734	-0.027543785664695584
2.4900415006916785	-0.02831860445546123
2.4910415173586227	-0.028350889665876126
2.4920415340255673	-0.027721141254830224
2.493041550692512	-0.02663520209404432
2.494041567359456	-0.025302191795731555
2.4950415840264006	-0.023931776622510677
2.4960416006933452	-0.022734169487407297
2.4970416173602894	-0.021920129953849107
2.498041634027234	-0.02170096423567196
2.4990416506941786	-0.022288525197113697
2.5000416673611228	-0.02389521235281849
2.5010416840280674	-0.026717627203230263
2.502041700695012	-0.03073096967993586
2.503041717361956	-0.03575100549472431
2.5040417340289007	-0.041590513736372126
2.5050417506958453	-0.04806283047336928
2.5060417673627895	-0.05498190003961828
2.507041784029734	-0.06216223617004879
2.5080418006966787	-0.06941889928622245
2.509041817363623	-0.07656749646010087
2.5100418340305675	-0.08342418141405587
2.5110418506975116	-0.0898196145013925
2.5120418673644562	-0.0957756606355501
2.513041884031401	-0.10147845996137052
2.514041900698345	-0.10708381619777
2.5150419173652896	-0.11266173112616372
2.516041934032234	-0.11827827218536757
2.5170419506991784	-0.12399675106668927
2.518041967366123	-0.12987772371393091
2.5190419840330676	-0.13597899032337848
2.5200420007000117	-0.14235559534382103
2.5210420173669563	-0.14905195285910575
2.522042034033901	-0.15600155317932754
2.523042050700845	-0.16305654229621
2.5240420673677897	-0.17006454163712723
2.5250420840347343	-0.17687041688194283
2.5260421007016785	-0.1833162779630158
2.527042117368623	-0.18924147906519007
2.5280421340355677	-0.19448261862581023
2.529042150702512	-0.1988735393347113
2.5300421673694564	-0.202245328134222
2.531042184036401	-0.20442917980778377
2.532042200703345	-0.2052930959704286
2.53304221737029	-0.20473118049604655
2.5340422340372344	-0.20263543715882817
2.5350422507041785	-0.19889511398545964
2.536042267371123	-0.19339670325511774
2.5370422840380673	-0.18602394149947257
2.538042300705012	-0.17665780950268234
2.5390423173719565	-0.16517653230141094
2.5400423340389007	-0.1514555791848031
2.5410423507058453	-0.1353677587689064
2.54204236737279	-0.11678444505740722
2.543042384039734	-0.09558635391708548
2.5440424007066786	-0.07180180708218052
2.5450424173736232	-0.04542810122982978
2.5460424340405674	-0.016455079433059933
2.547042450707512	0.015099760762340379
2.5480424673744566	0.04919126733789737
2.5490424840414008	0.08574663380240154
2.5500425007083454	0.12466539919193845
2.55104251737529	0.16582158809760056
2.552042534042234	0.20909148073798065
2.5530425507091787	0.2543456936324781
2.5540425673761233	0.3014276978708815
2.5550425840430675	0.35015331007019224
2.556042600710012	0.40031069237475153
2.5570426173769567	0.4516603524561574
2.558042634043901	0.5039351435133076
2.5590426507108455	0.5568402642723062
2.5600426673777896	0.6100532589866042
2.5610426840447342	0.6632215897112945
2.562042700711679	0.715930935458864
2.563042717378623	0.7677141288990172
2.5640427340455676	0.8180757596511121
2.565042750712512	0.8664927628618531
2.5660427673794564	0.9124144192051973
2.567042784046401	0.9552623548823974
2.5680428007133456	0.9944305416219267
2.5690428173802897	1.0292852966795933
2.5700428340472343	1.059165282838463
2.571042850714179	1.08331138614913
2.572042867381123	1.1011890561474087
2.5730428840480677	1.1128876666928245
2.5740429007150123	1.118541480050626
2.5750429173819565	1.1183014884304203
2.576042934048901	1.1123354139861785
2.5770429507158457	1.1008277088162302
2.57804296738279	1.0839795549632651
2.5790429840497344	1.0620088644143215
2.580043000716679	1.0351502791008302
2.581043017383623	1.0036568706393367
2.582043034050568	0.9678226150635506
2.5830430507175124	0.9279762044583463
2.5840430673844565	0.8844634888970501
2.585043084051401	0.837647048397296
2.5860431007183453	0.7879061929210956
2.58704311738529	0.7356369623747973
2.5880431340522345	0.6812521266091782
2.5890431507191787	0.6251811854193079
2.5900431673861233	0.5678703685446379
2.591043184053068	0.5097809466856967
2.592043200720012	0.4513667583402814
2.5930432173869566	0.39308032375213153
2.5940432340539012	0.33539045963424163
2.5950432507208454	0.2787827126439425
2.59604326738779	0.22375935938300087
2.5970432840547346	0.17083940639746728
2.5980433007216788	0.1205585901777775
2.5990433173886234	0.07332254842389015
2.600043334055568	0.028825004420405545
2.601043350722512	-0.01293782552038213
2.6020433673894567	-0.051916970620293684
2.6030433840564013	-0.08807732450225673
2.6040434007233455	-0.12139732379471613
2.60504341739029	-0.15186893752901384
2.6060434340572347	-0.1794976429846744
2.607043450724179	-0.20430243678872467
2.6080434673911235	-0.2263158503923375
2.609043484058068	-0.24558395028798422
2.6100435007250122	-0.2621663390260193
2.611043517391957	-0.27613478427357446
2.612043534058901	-0.28755473804850545
2.6130435507258456	-0.29649024186595657
2.61404356739279	-0.30301850671015995
2.6150435840597344	-0.3072302785874976
2.616043600726679	-0.30922983852649605
2.6170436173936236	-0.3091350025778375
2.6180436340605677	-0.3070771218143502
2.6190436507275123	-0.30320108233100984
2.620043667394457	-0.2976653052449474
2.621043684061401	-0.29064286704540315
2.6220437007283457	-0.2823366911128183
2.6230437173952903	-0.27297556558260777
2.6240437340622345	-0.26280150903246136
2.625043750729179	-0.25200141693250566
2.6260437673961237	-0.24070820052727052
2.627043784063068	-0.2290608498099374
2.6280438007300124	-0.2171899083009532
2.629043817396957	-0.20521747304799903
2.630043834063901	-0.19325719462601085
2.631043850730846	-0.18141402582338018
2.6320438673977904	-0.16978079231166765
2.6330438840647346	-0.15843908016693073
2.634043900731679	-0.1474619594302397
2.6350439173986233	-0.13691405366991027
2.636043934065568	-0.12685153998152174
2.6370439507325125	-0.11732214898788881
2.6380439673994567	-0.10836516483908097
2.6390439840664013	-0.10001142521241392
2.640044000733346	-0.09228332131246401
2.64104401740029	-0.08519432925474787
2.6420440340672346	-0.07874257488713209
2.6430440507341793	-0.07291247777700814
2.6440440674011234	-0.06767987884330143
2.645044084068068	-0.06301217253217947
2.6460441007350126	-0.058868306817061906
2.6470441174019568	-0.05519878319861694
2.6480441340689014	-0.05194565670476716
2.649044150735846	-0.0490425358906798
2.65004416740279	-0.04641458283877396
2.6510441840697347	-0.04397973506802743
2.6520442007366793	-0.041665591937456725
2.6530442174036235	-0.03941402290945772
2.654044234070568	-0.03727885796976725
2.6550442507375127	-0.03528918555741889
2.656044267404457	-0.033450898779229875
2.6570442840714015	-0.031770588089148864
2.658044300738346	-0.030255541288258768
2.6590443174052902	-0.02891374352477538
2.660044334072235	-0.027753877294048525
2.661044350739179	-0.026783794280358642
2.6620443674061236	-0.025989262061747516
2.663044384073068	-0.02533925138159022
2.6640444007400124	-0.024802982797516564
2.665044417406957	-0.02435037421428877
2.6660444340739016	-0.02395204088380276
2.6670444507408457	-0.02357929540508731
2.6680444674077903	-0.02320414772430562
2.669044484074735	-0.022799305134753034
2.670044500741679	-0.02233817227685909
2.6710445174086237	-0.021795803331129186
2.6720445340755683	-0.02116222948230917
2.6730445507425125	-0.020439188175010867
2.674044567409457	-0.019629398337607917
2.6750445840764017	-0.01873627624560683
2.676044600743346	-0.017763935521648604
2.6770446174102904	-0.016717187135506316
2.678044634077235	-0.015601539404086925
2.679044650744179	-0.0144231979914301
2.680044667411124	-0.013189065908710634
2.6810446840780684	-0.011907307257843912
2.6820447007450126	-0.010595288203853569
2.683044717411957	-0.009277654904424802
2.6840447340789018	-0.007979922267769739
2.685044750745846	-0.006728302549232217
2.6860447674127905	-0.005544953353192999
2.6870447840797347	-0.004441995931902566
2.6880448007466793	-0.003440035327506977
2.689044817413624	-0.0025602372717168508
2.690044834080568	-0.0018238061652887665
2.6910448507475127	-0.0012489470264543147
2.6920448674144573	-0.0008077968065381405
2.6930448840814014	-0.00043670345246800933
2.694044900748346	-7.111243096378454e-05
2.6950449174152906	0.00035349212220829596
2.696044934082235	0.0009015874022381062
2.6970449507491794	0.001637611935265397
2.698044967416124	0.00262596557838902
2.699044984083068	0.003931009519660486
2.7000450007500127	0.005617066278087075
2.7010450174169574	0.00774365180181511
2.7020450340839015	0.010297449748769219
2.703045050750846	0.013208316567854067
2.7040450674177907	0.016404565142955987
2.705045084084735	0.019814470536308783
2.7060451007516795	0.023366285580379533
2.707045117418624	0.026988239342801746
2.7080451340855682	0.03060852276162554
2.709045150752513	0.034155288105850244
2.710045167419457	0.03755664897543322
2.7110451840864016	0.040744551920673736
2.712045200753346	0.043710369796633224
2.7130452174202904	0.04649201055387168
2.714045234087235	0.04912858849887979
2.7150452507541796	0.05165917926910238
2.7160452674211237	0.054122819832939706
2.7170452840880683	0.05655850848974278
2.718045300755013	0.05900520486982102
2.719045317421957	0.061501829934436605
2.7200453340889017	0.06408726597580801
2.7210453507558463	0.06679860243919807
2.7220453674227905	0.06964578502805045
2.723045384089735	0.07261740785403027
2.7240454007566797	0.07570145164035356
2.725045417423624	0.0788858584411874
2.7260454340905684	0.0821585316416573
2.727045450757513	0.08550733595784185
2.728045467424457	0.0889200974367756
2.729045484091402	0.09238460345644284
2.7300455007583464	0.09588860272578728
2.7310455174252906	0.09942021327306809
2.732045534092235	0.1029738566428822
2.7330455507591798	0.10654929792101113
2.734045567426124	0.11015999478749498
2.7350455840930685	0.11381046043477139
2.7360456007600127	0.11749739242128904
2.7370456174269573	0.12121750916197394
2.738045634093902	0.12496754992823919
2.739045650760846	0.1287442748479792
2.7400456674277907	0.1325444649055717
2.7410456840947353	0.13636567631138136
2.7420457007616794	0.1402172837790587
2.743045717428624	0.14411803287114983
2.7440457340955686	0.14808694653330107
2.745045750762513	0.15214306856763501
2.7460457674294574	0.1563054636327622
2.747045784096402	0.1605932172437738
2.748045800763346	0.1650254357722455
2.7490458174302908	0.16962124644622903
2.7500458340972354	0.17439979735026448
2.7510458507641795	0.1793779885468838
2.752045867431124	0.18453704257252346
2.7530458840980687	0.18982979907962766
2.754045900765013	0.19520833256518047
2.7550459174319575	0.20062473838264552
2.756045934098902	0.20603113274197266
2.7570459507658462	0.2113796527095863
2.758045967432791	0.2166224562083996
2.7590459840997354	0.2217117220178065
2.7600460007666796	0.22659964977368505
2.761046017433624	0.23124137657886792
2.7620460341005684	0.23563822910324442
2.763046050767513	0.23982843441223653
2.7640460674344576	0.24385126976388383
2.7650460841014017	0.24774603327270228
2.7660461007683463	0.2515520439096964
2.767046117435291	0.25530864150234994
2.768046134102235	0.25905518673463207
2.7690461507691797	0.2628310611469883
2.7700461674361243	0.26667566713635193
2.7710461841030685	0.2706262630790852
2.772046200770013	0.2746856503262046
2.7730462174369577	0.2788290014962078
2.774046234103902	0.28303073173306464
2.7750462507708464	0.28726527703722526
2.776046267437791	0.29150709426562393
2.777046284104735	0.2957306611316718
2.77804630077168	0.2999104762052678
2.7790463174386244	0.3040210589127915
2.7800463341055686	0.3080369495371067
2.781046350772513	0.31193395470552654
2.7820463674394578	0.3157078587044016
2.783046384106402	0.3193705342042242
2.7840464007733465	0.32293433088919565
2.7850464174402907	0.3264116192999941
2.7860464341072353	0.3298147908337854
2.78704645077418	0.3331562577442153
2.788046467441124	0.3364484531414147
2.7890464841080687	0.3397038309919909
2.7900465007750133	0.3429348661190392
2.7910465174419574	0.3461532965954194
2.792046534108902	0.3493586677019166
2.7930465507758466	0.35254067339404244
2.794046567442791	0.3556887458301916
2.7950465841097354	0.35879233802524035
2.79604660077668	0.3618409238505481
2.797046617443624	0.364823998033953
2.7980466341105688	0.36773107615977924
2.7990466507775134	0.3705516946688323
2.8000466674444575	0.3732754108584011
2.801046684111402	0.37589163200112635
2.8020467007783467	0.3783870144891013
2.803046717445291	0.38074598636602286
2.8040467341122355	0.3829529315890591
2.80504675077918	0.38499225431117934
2.8060467674461242	0.38684834909500354
2.807046784113069	0.38850558880827923
2.8080468007800135	0.38994836400830435
2.8090468174469576	0.3911610861088575
2.810046834113902	0.3921281875898113
2.8110468507808464	0.39283574612879285
2.812046867447791	0.39329633335538705
2.8130468841147356	0.393544107660051
2.8140469007816797	0.39361387623092003
2.8150469174486243	0.3935404671126097
2.816046934115569	0.39335872920621895
2.817046950782513	0.39310353226932926
2.8180469674494577	0.39280976691600383
2.8190469841164023	0.39251234461678863
2.8200470007833465	0.39224619769871155
2.821047017450291	0.3920436277143643
2.8220470341172357	0.3918934156880811
2.82304705078418	0.39174875147184696
2.8240470674511244	0.39156180013186265
2.825047084118069	0.39128106249373396
2.826047100785013	0.3908496996445004
2.827047117451958	0.3902243824840514
2.8280471341189024	0.38936268964512505
2.8290471507858466	0.3882221691478943
2.830047167452791	0.3867603383999703
2.8310471841197358	0.38493744240187405
2.83204720078668	0.38275926677470823
2.8330472174536245	0.38026898564033573
2.834047234120569	0.3775108504094037
2.8350472507875133	0.37452908187999295
2.836047267454458	0.3713678702376205
2.837047284121402	0.36807137505523785
2.8380473007883467	0.3646837252932368
2.8390473174552913	0.36124901929944103
2.8400473341222354	0.3578113248091114
2.84104735078918	0.3544127501458664
2.8420473674561246	0.35106330793029045
2.843047384123069	0.3477465473758109
2.8440474007900134	0.34444519793527417
2.845047417456958	0.34114195844896156
2.846047434123902	0.33781949714459475
2.8470474507908468	0.33446045163732613
2.8480474674577914	0.33104742892974653
2.8490474841247355	0.32756300541188016
2.85004750079168	0.32398972686119254
2.8510475174586247	0.32031104901289215
2.852047534125569	0.3165261304561544
2.8530475507925135	0.31264712011562934
2.854047567459458	0.3086865282731132
2.8550475841264022	0.3046568345978334
2.856047600793347	0.30057048814645426
2.8570476174602915	0.2964399073630745
2.8580476341272356	0.29227748007923493
2.85904765079418	0.2880955635139056
2.8600476674611244	0.2839064842734952
2.861047684128069	0.27972160510346694
2.8620477007950136	0.2755365500071988
2.8630477174619577	0.2713338611914631
2.8640477341289023	0.26709565411736025
2.865047750795847	0.2628040136334238
2.866047767462791	0.2584409939756296
2.8670477841297357	0.25398861876738327
2.8680478007966803	0.2494288810195281
2.8690478174636245	0.24474374313034145
2.870047834130569	0.2399151368855429
2.8710478507975137	0.23492685519425552
2.872047867464458	0.22979470004081817
2.8730478841314024	0.22456116797812709
2.874047900798347	0.21926954280875563
2.875047917465291	0.2139630777227059
2.876047934132236	0.20868499529741916
2.8770479507991804	0.2034784874977697
2.8780479674661246	0.19838671567607444
2.879047984133069	0.19345281057207997
2.8800480008000138	0.18871987231297002
2.881048017466958	0.18422807152080897
2.8820480341339025	0.17996814366207062
2.883048050800847	0.17588942164892138
2.8840480674677913	0.17193993128128646
2.885048084134736	0.16806766774652682
2.88604810080168	0.16422059561944402
2.8870481174686247	0.1603466488622694
2.8880481341355693	0.15639373082467278
2.8890481508025134	0.15230971424375692
2.890048167469458	0.1480424412440678
2.8910481841364026	0.14354254283703424
2.892048200803347	0.1388089720775954
2.8930482174702914	0.13388130188919772
2.894048234137236	0.12880033909470773
2.89504825080418	0.12360685990442169
2.8960482674711248	0.11834160991607359
2.8970482841380694	0.11304530411483156
2.8980483008050135	0.10775862687330583
2.899048317471958	0.102522231951536
2.9000483341389027	0.09737674249700065
2.901048350805847	0.09236145493263309
2.9020483674727915	0.08749326790177601
2.903048384139736	0.08277017115714291
2.9040484008066803	0.07818953180121696
2.905048417473625	0.07374868640475739
2.9060484341405695	0.06944495662726619
2.9070484508075136	0.06527566786651581
2.908048467474458	0.061238119451891664
2.909048484141403	0.057329580100212905
2.910048500808347	0.053547287915740246
2.9110485174752916	0.0498878705404512
2.9120485341422357	0.04633785543967496
2.9130485508091803	0.0428752071326239
2.914048567476125	0.03947758976949808
2.915048584143069	0.03612263688792889
2.9160486008100137	0.03278795141298471
2.9170486174769583	0.029451105657168696
2.9180486341439025	0.026089641320425055
2.919048650810847	0.022681069490128204
2.9200486674777917	0.019202870641090636
2.921048684144736	0.015634204518088966
2.9220487008116804	0.011984081240479854
2.923048717478625	0.008286899263043991
2.924048734145569	0.004577131163783904
2.925048750812514	0.000887818602991277
2.9260487674794584	-0.002747847812644392
2.9270487841464026	-0.006296668646958322
2.928048800813347	-0.0097254371125062
2.9290488174802918	-0.013000939070564599
2.930048834147236	-0.01608995303112758
2.9310488508141805	-0.018960990169695154
2.932048867481125	-0.021613154369771733
2.9330488841480693	-0.024071675213862203
2.934048900815014	-0.0263626145685079
2.935048917481958	-0.02851202694897446
2.9360489341489027	-0.030545959519247087
2.9370489508158473	-0.03249045209203252
2.9380489674827914	-0.03437153712875565
2.939048984149736	-0.03621523973956464
2.9400490008166806	-0.03804757768332777
2.941049017483625	-0.03989335411405671
2.9420490341505694	-0.041755999275067415
2.943049050817514	-0.04362061767931561
2.944049067484458	-0.04547171319802311
2.9450490841514028	-0.04729378235113232
2.9460491008183474	-0.04907131430730738
2.9470491174852915	-0.05078879088393069
2.948049134152236	-0.05243068654710779
2.9490491508191807	-0.05398146841166418
2.950049167486125	-0.05542559624114688
2.9510491841530695	-0.05674851936210479
2.952049200820014	-0.05795343502222728
2.9530492174869583	-0.05905881598343518
2.954049234153903	-0.060083626601271235
2.9550492508208475	-0.061046823879996874
2.9560492674877916	-0.06196735747259642
2.9570492841547362	-0.0628641696807744
2.958049300821681	-0.06375619545495648
2.959049317488625	-0.06466236239428737
2.9600493341555696	-0.06560159074663438
2.9610493508225137	-0.06659191447472702
2.9620493674894584	-0.06763560635341581
2.963049384156403	-0.06872131835590663
2.964049400823347	-0.0698372471110113
2.9650494174902917	-0.07097158189626158
2.9660494341572363	-0.07211250463791062
2.9670494508241805	-0.07324818991093095
2.968049467491125	-0.07436680493901729
2.9690494841580697	-0.07545650959458436
2.970049500825014	-0.07650545639876802
2.9710495174919584	-0.0775021481632199
2.972049534158903	-0.07844153162909655
2.973049550825847	-0.07932414288588062
2.974049567492792	-0.08015069631470331
2.9750495841597364	-0.08092189894541553
2.9760496008266806	-0.08163845045658992
2.977049617493625	-0.08230104317551952
2.97804963416057	-0.08291036207821842
2.979049650827514	-0.08346708478942072
2.9800496674944585	-0.08397188158258183
2.981049684161403	-0.08442572692418365
