Time	Amplitude
0.0	0.059129850496119116
0.0010000166669444492	0.0926977124356467
0.0020000333338888983	0.04858602703088789
0.0030000500008333475	0.12414721835265263
0.004000066667777797	0.1313481859166295
0.005000083334722245	0.06394631956919504
0.006000100001666695	0.08617791657966828
0.0070001166686111446	0.10512999597683698
0.008000133335555593	0.04835127437052762
0.009000150002500042	0.0469475140559171
0.01000016666944449	0.053568720628513256
0.011000183336388941	0.02068793708750388
0.01200020000333339	0.13440154928268688
0.013000216670277839	0.09901681133669529
0.014000233337222289	0.08153136882245063
0.015000250004166738	0.0720390407486722
0.016000266671111187	0.0978827144414406
0.017000283338055637	0.054159698713079005
0.018000300005000084	0.12183869016493604
0.019000316671944534	0.02729430359340773
0.02000033333888898	0.048111229898520416
0.021000350005833432	0.13185218064834314
0.022000366672777882	0.07845724701863899
0.02300038333972233	0.1136168434319413
0.02400040000666678	0.13909146629995678
0.02500041667361123	0.07317815794046989
0.026000433340555677	0.04780269346589168
0.027000450007500128	0.09346628815307768
0.028000466674444578	0.1145829379666467
0.029000483341389025	0.12175472262001368
0.030000500008333476	0.1146114570574247
0.031000516675277923	0.093311456449643
0.03200053334222237	0.09488758034216621
0.033000550009166824	0.07479602379264448
0.034000566676111274	0.054829236281419134
0.03500058334305572	0.018674625744161805
0.03600060001000017	0.08475550051994052
0.03700061667694462	0.08453802896181363
0.03800063334388907	0.07216680459489719
0.03900065001083352	0.13315092095074507
0.04000066667777796	0.08645849816554686
0.04100068334472241	0.0443499086551702
0.042000700011666864	0.13096838269201502
0.043000716678611314	0.09522610009285493
0.044000733345555765	0.09137786179322024
0.045000750012500215	0.00986441816495567
0.04600076667944466	0.11681989659749184
0.04700078334638911	0.1284228991002409
0.04800080001333356	0.07089614357876126
0.04900081668027801	0.09479910628063488
0.05000083334722246	0.1261365953434419
0.051000850014166904	0.09989830594935242
0.052000866681111355	0.11435823436493253
0.053000883348055805	0.0742386866987869
0.054000900015000255	0.06993038857585625
0.055000916681944706	0.045920348030638776
0.056000933348889156	0.10533477098331923
0.0570009500158336	0.12002553303291051
0.05800096668277805	0.05691015922357283
0.0590009833497225	0.030387735652720575
0.06000100001666695	0.07740070536652942
0.0610010166836114	0.05262783854337814
0.062001033350555845	0.07332065939499581
0.0630010500175003	0.1180174359126241
0.06400106668444475	0.06279062469668198
0.0650010833513892	0.0778135969255153
0.06600110001833365	0.12506411999365558
0.0670011166852781	0.039880050877771016
0.06800113335222255	0.04907933865186227
0.069001150019167	0.1217494481565934
0.07000116668611144	0.0484753548079137
0.07100118335305589	0.1297529702600866
0.07200120002000034	0.05602877274814111
0.07300121668694479	0.05092732088565623
0.07400123335388924	0.06990611189519347
0.07500125002083369	0.11048652402337686
0.07600126668777814	0.051381044336556894
0.07700128335472259	0.11119613174381517
0.07800130002166704	0.1243434294291648
0.07900131668861149	0.10983295221069017
0.08000133335555593	0.05320187143947948
0.08100135002250038	0.11103750533133991
0.08200136668944483	0.079725513757954
0.08300138335638928	0.09570058280787125
0.08400140002333373	0.0947304095206461
0.08500141669027818	0.0825041109751885
0.08600143335722263	0.09414166357530815
0.08700145002416708	0.09499084770326828
0.08800146669111153	0.08420175098413549
0.08900148335805598	0.026504789398868543
0.09000150002500043	0.061967905005158364
0.09100151669194487	0.08516915616425282
0.09200153335888932	0.07117809208589031
0.09300155002583377	0.09336951097766213
0.09400156669277822	0.12340202942867362
0.09500158335972267	0.13112611583129158
0.09600160002666712	0.08756667330276334
0.09700161669361157	0.07942011031600954
0.09800163336055602	0.10544323488921133
0.09900165002750047	0.11109460090847843
0.10000166669444492	0.07858539712536834
0.10100168336138937	0.07651479097179448
0.10200170002833381	0.06764807845746296
0.10300171669527826	0.10354084997583309
0.10400173336222271	0.042288422580135196
0.10500175002916716	0.11730012326622528
0.10600176669611161	0.07955571734377548
0.10700178336305606	0.08551922390300545
0.10800180003000051	0.03711123354429613
0.10900181669694496	0.055831962523300464
0.11000183336388941	0.1343955173099955
0.11100185003083386	0.1344983856282023
0.11200186669777831	0.05024166098431621
0.11300188336472275	0.10031607963930761
0.1140019000316672	0.10337396891999491
0.11500191669861165	0.03866988618419031
0.1160019333655561	0.08758839404856492
0.11700195003250055	0.04302810049121486
0.118001966699445	0.11454547723668751
0.11900198336638945	0.09932505977285054
0.1200020000333339	0.09924869787186831
0.12100201670027835	0.09659303698763268
0.1220020333672228	0.10313520337487359
0.12300205003416724	0.11636921740236328
0.12400206670111169	0.03667008729386029
0.12500208336805615	0.07260488388733663
0.1260021000350006	0.035493975899589664
0.12700211670194506	0.04023707937412852
0.1280021333688895	0.04151788448928987
0.12900215003583393	0.13057257458788285
0.1300021667027784	0.10562157138673983
0.13100218336972283	0.08250858096836702
0.1320022000366673	0.04005112845187289
0.13300221670361173	0.06119548429180012
0.1340022333705562	0.08144971171493488
0.13500225003750063	0.05289706621039272
0.1360022667044451	0.08949041531754491
0.13700228337138953	0.019558477140574654
0.138002300038334	0.06409971476412309
0.13900231670527843	0.11721902117463662
0.14000233337222287	0.09534237874840282
0.14100235003916733	0.09531107014531218
0.14200236670611177	0.11734750527520804
0.14300238337305624	0.06435151687096985
0.14400240004000067	0.07015935227978433
0.14500241670694514	0.0189276903713802
0.14600243337388957	0.08033595679561278
0.14700245004083404	0.03599299074607692
0.14800246670777847	0.06860245015383246
0.14900248337472294	0.06444616085939961
0.15000250004166737	0.09642827478561902
0.1510025167086118	0.050824840308898354
0.15200253337555628	0.056501327362376494
0.1530025500425007	0.05989943381216658
0.15400256670944518	0.10024042262050918
0.1550025833763896	0.08844203544439763
0.15600260004333408	0.09648049587655783
0.15700261671027851	0.039648964142378
0.15800263337722298	0.05996436438570608
0.15900265004416742	0.09908870176798701
0.16000266671111185	0.09891552603553855
0.16100268337805632	0.09521992549055823
0.16200270004500075	0.05346113041064743
0.16300271671194522	0.08602081490302213
0.16400273337888965	0.031015263776165165
0.16500275004583412	0.07945483166844725
0.16600276671277855	0.10487836802425618
0.16700278337972302	0.11910819276609115
0.16800280004666746	0.046407986819614874
0.16900281671361192	0.030264443459410435
0.17000283338055636	0.059636557765673864
0.1710028500475008	0.09641509223149608
0.17200286671444526	0.14163030810572697
0.1730028833813897	0.06800702556305248
0.17400290004833416	0.09095800442514461
0.1750029167152786	0.04489996332005156
0.17600293338222306	0.04719319115524502
0.1770029500491675	0.08622760440384526
0.17800296671611196	0.03233320796127854
0.1790029833830564	0.06557769777751345
0.18000300005000086	0.05246826215891171
0.1810030167169453	0.05000144881024758
0.18200303338388973	0.11556097772118008
0.1830030500508342	0.0805842772185342
0.18400306671777863	0.03587869014178541
0.1850030833847231	0.04200513565390743
0.18600310005166754	0.12247708244369182
0.187003116718612	0.11342649709253508
0.18800313338555644	0.08662228026970481
0.1890031500525009	0.1161411569817362
0.19000316671944534	0.05320548791467356
0.1910031833863898	0.05946695915862995
0.19200320005333424	0.05053086751399627
0.19300321672027868	0.08373123384499973
0.19400323338722314	0.03691046158870369
0.19500325005416758	0.06594432242669554
0.19600326672111204	0.018706139868150926
0.19700328338805648	0.12249830565975856
0.19800330005500094	0.07057419018934817
0.19900331672194538	0.08405944874002003
0.20000333338888984	0.10619386009667874
0.20100335005583428	0.06543888328940427
0.20200336672277874	0.05165432273558917
0.20300338338972318	0.0751375424358391
0.20400340005666762	0.08281627546631369
0.20500341672361208	0.07981385958108211
0.20600343339055652	0.1294662738545384
0.20700345005750098	0.13772871443438567
0.20800346672444542	0.09013153266269916
0.20900348339138988	0.058466302901644465
0.21000350005833432	0.1284838074325591
0.21100351672527878	0.047099537434593955
0.21200353339222322	0.06973353111689659
0.21300355005916768	0.09384029593338976
0.21400356672611212	0.06536574960934449
0.21500358339305656	0.05122581943788324
0.21600360006000102	0.09799833198210556
0.21700361672694546	0.14093739155277976
0.21800363339388992	0.09089093800193473
0.21900365006083436	0.062484962813035214
0.22000366672777882	0.06651172183245388
0.22100368339472326	0.130515388828118
0.22200370006166772	0.1022373457896185
0.22300371672861216	0.11165480243644267
0.22400373339555663	0.07731880977028964
0.22500375006250106	0.12269573599123915
0.2260037667294455	0.11171205850715987
0.22700378339638996	0.057097491433910574
0.2280038000633344	0.04259049885572318
0.22900381673027886	0.10850357201617462
0.2300038333972233	0.031180647282941617
0.23100385006416777	0.0888965495331144
0.2320038667311122	0.09298606330699151
0.23300388339805667	0.11642512983602483
0.2340039000650011	0.08052520310844406
0.23500391673194554	0.04765448837657162
0.23600393339889	0.09729293252852095
0.23700395006583444	0.09159035219172515
0.2380039667327789	0.036217845197399845
0.23900398339972334	0.12466034072244705
0.2400040000666678	0.09473898997929311
0.24100401673361224	0.07180681217405577
0.2420040334005567	0.05230277875938155
0.24300405006750114	0.11325604587998064
0.2440040667344456	0.07491961926526014
0.24500408340139004	0.09725049927585239
0.24600410006833448	0.05555392260380555
0.24700411673527894	0.07658207533185805
0.24800413340222338	0.08244983979826455
0.24900415006916785	0.11710637204912236
0.2500041667361123	0.07352919997513285
0.25100418340305675	0.10317955565492556
0.2520042000700012	0.09895337564104584
0.2530042167369456	0.04782340868781726
0.2540042334038901	0.09413427016192313
0.25500425007083455	0.0642596621950085
0.256004266737779	0.05254149386948986
0.2570042834047234	0.10616883801204595
0.25800430007166786	0.12324119497144784
0.25900431673861235	0.07987489227491894
0.2600043334055568	0.05647582247800069
0.2610043500725012	0.06608574342568779
0.26200436673944566	0.11763206127740088
0.26300438340639015	0.07791773713819586
0.2640044000733346	0.040644914889324604
0.265004416740279	0.09061937080388169
0.26600443340722346	0.03706931969339648
0.2670044500741679	0.11223915037831618
0.2680044667411124	0.10873554444415358
0.2690044834080568	0.09901324300723635
0.27000450007500126	0.14184410410254483
0.2710045167419457	0.11213197026371835
0.2720045334088902	0.09751599978729017
0.27300455007583463	0.1103076923321358
0.27400456674277907	0.04113457534671823
0.2750045834097235	0.06666276511081412
0.276004600076668	0.13287239267564713
0.27700461674361243	0.14010861411830056
0.27800463341055687	0.13969009890536113
0.2790046500775013	0.0698546703690024
0.28000466674444574	0.05444634304533972
0.28100468341139023	0.09630922469960693
0.28200470007833467	0.06190325427111017
0.2830047167452791	0.11527482716195901
0.28400473341222354	0.029898942944432766
0.28500475007916803	0.11596368612444692
0.28600476674611247	0.11624137769788069
0.2870047834130569	0.06906555461811857
0.28800480008000134	0.07624716510428414
0.2890048167469458	0.06299387304689245
0.2900048334138903	0.08212969386987332
0.2910048500808347	0.07673964599124612
0.29200486674777915	0.050955463157799585
0.2930048834147236	0.06478819204677122
0.2940049000816681	0.10957073795657395
0.2950049167486125	0.08959153594723146
0.29600493341555695	0.06585712773833516
0.2970049500825014	0.04619918555051339
0.2980049667494459	0.06994820666265578
0.2990049834163903	0.08034629493829294
0.30000500008333475	0.06782491582621576
0.3010050167502792	0.03213654345182514
0.3020050334172236	0.11961188861224045
0.3030050500841681	0.04090284182515438
0.30400506675111255	0.04561612704171258
0.305005083418057	0.120183430692308
0.3060051000850014	0.01826210396154651
0.3070051167519459	0.08397322798429034
0.30800513341889035	0.0742456564125593
0.3090051500858348	0.036434330115488946
0.3100051667527792	0.11729892817567746
0.31100518341972366	0.06850002001592354
0.31200520008666816	0.06675803827123114
0.3130052167536126	0.08376711567893325
0.31400523342055703	0.10548824383698464
0.31500525008750146	0.07632805388930022
0.31600526675444596	0.06631896208981279
0.3170052834213904	0.03705880994317476
0.31800530008833483	0.11492583037413229
0.31900531675527927	0.06082149210513442
0.3200053334222237	0.027310266996844742
0.3210053500891682	0.05825733798345689
0.32200536675611263	0.056009679158777234
0.32300538342305707	0.10740837063739751
0.3240054000900015	0.11103876739540701
0.325005416756946	0.09704574581686415
0.32600543342389043	0.053718197475621676
0.32700545009083487	0.07267583750934085
0.3280054667577793	0.08856036522608182
0.3290054834247238	0.12039464291208268
0.33000550009166824	0.09191436776846773
0.3310055167586127	0.07005094326218088
0.3320055334255571	0.028016997861375556
0.33300555009250155	0.09133433056868831
0.33400556675944604	0.10742348849265833
0.3350055834263905	0.07990411764348555
0.3360056000933349	0.08732409121192898
0.33700561676027935	0.10763156048429684
0.33800563342722384	0.0946838818385802
0.3390056500941683	0.11312382047820398
0.3400056667611127	0.0539453028746145
0.34100568342805715	0.1162044617363413
0.3420057000950016	0.11938985653242196
0.3430057167619461	0.055964897832437306
0.3440057334288905	0.060670629833214085
0.34500575009583495	0.11511714597652913
0.3460057667627794	0.04332931508417252
0.3470057834297239	0.08775771041831898
0.3480058000966683	0.025492956205761332
0.34900581676361275	0.07988489077098818
0.3500058334305572	0.06493956508758546
0.3510058500975017	0.0355350640006593
0.3520058667644461	0.09046338889235593
0.35300588343139055	0.044145666472707255
0.354005900098335	0.12149543903966796
0.35500591676527943	0.10075547174185338
0.3560059334322239	0.06504564209907371
0.35700595009916836	0.08905561226284706
0.3580059667661128	0.08328175129575646
0.35900598343305723	0.1234035792097979
0.3600060001000017	0.10551947730162642
0.36100601676694616	0.11437815214680007
0.3620060334338906	0.11897123920679897
0.36300605010083503	0.1294544174863194
0.36400606676777947	0.0522950932417256
0.36500608343472396	0.06730345263737118
0.3660061001016684	0.06268781665791641
0.36700611676861283	0.12020970629398615
0.36800613343555727	0.1270338858295523
0.36900615010250176	0.09265383810124976
0.3700061667694462	0.07133326060060675
0.37100618343639064	0.08293199079162113
0.37200620010333507	0.10973379241198256
0.37300621677027956	0.07500296876142257
0.374006233437224	0.08052274186084021
0.37500625010416844	0.06892193166649337
0.3760062667711129	0.09177457964429618
0.3770062834380573	0.040675376980784717
0.3780063001050018	0.12727887908458102
0.37900631677194624	0.041215974333715294
0.3800063334388907	0.11458710240299001
0.3810063501058351	0.09487132231121628
0.3820063667727796	0.0529956574430192
0.38300638343972404	0.12348345967954115
0.3840064001066685	0.09595478568295285
0.3850064167736129	0.042781477290226494
0.38600643344055735	0.04341221019324191
0.38700645010750184	0.13527429095276383
0.3880064667744463	0.08988833689515055
0.3890064834413907	0.10943277028582872
0.39000650010833515	0.09141855951699049
0.39100651677527964	0.11941887637080956
0.3920065334422241	0.05042264951407817
0.3930065501091685	0.07847129338755351
0.39400656677611295	0.08919002150637566
0.3950065834430574	0.03953421649484849
0.3960066001100019	0.07979325410010481
0.3970066167769463	0.11539476215110323
0.39800663344389076	0.052436517630229426
0.3990066501108352	0.03815895317181757
0.4000066667777797	0.08746738042750989
0.4010066834447241	0.09514680247035869
0.40200670011166856	0.1334915172357101
0.403006716778613	0.085218861923176
0.4040067334455575	0.04258067659727184
0.4050067501125019	0.11136590613420017
0.40600676677944636	0.1272169783389475
0.4070067834463908	0.029927650269729135
0.40800680011333523	0.07928543166936669
0.4090068167802797	0.10074839838981219
0.41000683344722416	0.08043700668177489
0.4110068501141686	0.11910275752887516
0.41200686678111303	0.09852767164297233
0.4130068834480575	0.12788253529637267
0.41400690011500196	0.06669991828880589
0.4150069167819464	0.044442593380881565
0.41600693344889084	0.10484489623967212
0.4170069501158353	0.09269426215106571
0.41800696678277977	0.10786711082888362
0.4190069834497242	0.07939508197836131
0.42000700011666864	0.14289715323849786
0.4210070167836131	0.06907939197674533
0.42200703345055757	0.10587403625973205
0.423007050117502	0.0762774852008766
0.42400706678444644	0.0895910037177468
0.4250070834513909	0.05636554824177286
0.42600710011833537	0.07586156821646163
0.4270071167852798	0.12422921360692338
0.42800713345222424	0.13296851626076753
0.4290071501191687	0.1209393504023305
0.4300071667861131	0.048240638557141884
0.4310071834530576	0.029871422050772437
0.43200720012000204	0.10643486628716804
0.4330072167869465	0.04345950389902031
0.4340072334538909	0.05767864994946982
0.4350072501208354	0.07190301691547929
0.43600726678777985	0.06287103351805948
0.4370072834547243	0.13682601940693448
0.4380073001216687	0.11316349320808572
0.43900731678861316	0.06558650765831991
0.44000733345555765	0.0771628626762306
0.4410073501225021	0.04429774940482914
0.4420073667894465	0.07892985325487219
0.44300738345639096	0.05042833163772746
0.44400740012333545	0.08672749768299355
0.4450074167902799	0.06645103094540528
0.4460074334572243	0.0945433024086588
0.44700745012416876	0.10695002141398083
0.44800746679111325	0.0488458721493937
0.4490074834580577	0.11356555996268931
0.4500075001250021	0.11358313596089939
0.45100751679194656	0.034900243599717044
0.452007533458891	0.031712759323402485
0.4530075501258355	0.13187598384472626
0.4540075667927799	0.07008653483784576
0.45500758345972436	0.08669324221252926
0.4560076001266688	0.11557322869573433
0.4570076167936133	0.10370514445885724
0.45800763346055773	0.07475376530985842
0.45900765012750216	0.04681653564093578
0.4600076667944466	0.08156509457467465
0.46100768346139104	0.1148762936512093
0.46200770012833553	0.09198032131952938
0.46300771679527997	0.1078443212040447
0.4640077334622244	0.07198307943454285
0.46500775012916884	0.08087295909657424
0.46600776679611333	0.0639959149826087
0.46700778346305777	0.043005659366006296
0.4680078001300022	0.049610312590631686
0.46900781679694664	0.12172594743465243
0.4700078334638911	0.09360488692008849
0.47100785013083557	0.08367529829718064
0.47200786679778	0.09119111050467953
0.47300788346472444	0.10514160382609489
0.4740079001316689	0.11774721108119841
0.47500791679861337	0.05529432959576566
0.4760079334655578	0.0690284943134293
0.47700795013250225	0.11010018758482921
0.4780079667994467	0.12463426923372531
0.4790079834663912	0.08888551977017517
0.4800080001333356	0.04997680577678843
0.48100801680028005	0.07947628435855723
0.4820080334672245	0.0786702500381878
0.4830080501341689	0.11628354564993576
0.4840080668011134	0.03138138738315984
0.48500808346805785	0.03921597644359312
0.4860081001350023	0.09735685447861193
0.4870081168019467	0.05080400242946423
0.4880081334688912	0.07973534228172195
0.48900815013583565	0.10480561329489194
0.4900081668027801	0.06203213931441635
0.4910081834697245	0.135472047252873
0.49200820013666896	0.12513573589630897
0.49300821680361345	0.08927824520312064
0.4940082334705579	0.1300941373436112
0.4950082501375023	0.04649315791676566
0.49600826680444676	0.12390064977851478
0.49700828347139125	0.0830342693256568
0.4980083001383357	0.06938046860363817
0.4990083168052801	0.06279424855485505
0.5000083334722246	0.07181172521013925
0.501008350139169	0.05372047451656103
0.5020083668061135	0.029814105218122
0.5030083834730579	0.061281520098977006
0.5040084001400024	0.0759667953862405
0.5050084168069469	0.09066134096560205
0.5060084334738912	0.0651503544350907
0.5070084501408357	0.060087287241354675
0.5080084668077802	0.038166299697502876
0.5090084834747246	0.05590699688263332
0.5100085001416691	0.06156589091843477
0.5110085168086135	0.04828639500553597
0.512008533475558	0.07907307931038614
0.5130085501425025	0.06457620460687942
0.5140085668094468	0.08694879552927771
0.5150085834763913	0.07364352906422324
0.5160086001433357	0.05412566585013296
0.5170086168102802	0.02902778125031015
0.5180086334772247	0.05691011361971049
0.5190086501441691	0.08456337770571282
0.5200086668111136	0.07749513489406762
0.5210086834780581	0.1384697930652651
0.5220087001450024	0.09320304245098933
0.5230087168119469	0.0444974570368019
0.5240087334788913	0.13630335804530044
0.5250087501458358	0.11023295772899666
0.5260087668127803	0.037905644293659
0.5270087834797247	0.08970677330939147
0.5280088001466692	0.05886012538170901
0.5290088168136136	0.06263858075559284
0.530008833480558	0.12928764139519658
0.5310088501475025	0.08355732137791
0.5320088668144469	0.10596843561964818
0.5330088834813914	0.11263057380554672
0.5340089001483358	0.13110431712277706
0.5350089168152803	0.04347601715616185
0.5360089334822248	0.10424156919617439
0.5370089501491692	0.10267089556275662
0.5380089668161137	0.07220634946813315
0.5390089834830581	0.1158494035780347
0.5400090001500025	0.052278915506392146
0.541009016816947	0.11135544283499725
0.5420090334838914	0.0682338960191273
0.5430090501508359	0.09804801537227109
0.5440090668177804	0.06171009830199842
0.5450090834847248	0.10749685366053308
0.5460091001516693	0.09370841833865601
0.5470091168186136	0.11536733885408587
0.5480091334855581	0.1181158999744152
0.5490091501525026	0.12475230193260259
0.550009166819447	0.03911350028058179
0.5510091834863915	0.05971525765129661
0.552009200153336	0.08938724731836598
0.5530092168202804	0.043829064948393295
0.5540092334872249	0.03858080233966739
0.5550092501541692	0.08197706839050926
0.5560092668211137	0.12368336623103394
0.5570092834880582	0.07002732523396074
0.5580093001550026	0.06686483279596657
0.5590093168219471	0.07289069664410637
0.5600093334888915	0.06558684149807475
0.561009350155836	0.0578303587800814
0.5620093668227805	0.12477942747667305
0.5630093834897248	0.05539075671905011
0.5640094001566693	0.09205901262006388
0.5650094168236138	0.07794902774782181
0.5660094334905582	0.05208455318168338
0.5670094501575027	0.011909572811596054
0.5680094668244471	0.07275859492281178
0.5690094834913916	0.07406508977491204
0.5700095001583361	0.1285979952152667
0.5710095168252804	0.09323790498520695
0.5720095334922249	0.10876153727731387
0.5730095501591693	0.12317499873060153
0.5740095668261138	0.07145180955587534
0.5750095834930583	0.07559505052530072
0.5760096001600027	0.08938484301426078
0.5770096168269472	0.09665025574093647
0.5780096334938916	0.02791692619101009
0.579009650160836	0.10186020274186008
0.5800096668277805	0.07618817775538546
0.5810096834947249	0.058592365673397075
0.5820097001616694	0.042917697987129175
0.5830097168286139	0.031705390265858974
0.5840097334955583	0.12899858748893184
0.5850097501625028	0.07480002300030697
0.5860097668294472	0.08777112518723301
0.5870097834963917	0.10504145624899998
0.5880098001633361	0.03986845667907876
0.5890098168302805	0.10249797648678323
0.590009833497225	0.1092982185260409
0.5910098501641694	0.1259230423924804
0.5920098668311139	0.11679781734566358
0.5930098834980584	0.058608981577879526
0.5940099001650028	0.09624140759068969
0.5950099168319473	0.10029570696108583
0.5960099334988918	0.10432392120152584
0.5970099501658361	0.10526311514217483
0.5980099668327806	0.05859166077177973
0.599009983499725	0.0733852101581301
0.6000100001666695	0.1236702181077927
0.601010016833614	0.091627178728571
0.6020100335005584	0.059390166747795736
0.6030100501675029	0.06178234931776449
0.6040100668344472	0.07128752926733917
0.6050100835013917	0.11096536357493554
0.6060101001683362	0.12079466666766925
0.6070101168352806	0.0699268437924862
0.6080101335022251	0.133032546035933
0.6090101501691695	0.06283365356313125
0.610010166836114	0.11044348471625623
0.6110101835030585	0.02731291707424059
0.6120102001700028	0.0972985590120835
0.6130102168369473	0.020267617684093065
0.6140102335038918	0.10496060006719438
0.6150102501708362	0.11110543319898654
0.6160102668377807	0.030958905753877733
0.6170102835047251	0.04323067122939911
0.6180103001716696	0.0888825539116186
0.6190103168386141	0.059907741674388865
0.6200103335055585	0.1264088748494125
0.621010350172503	0.08671953078877576
0.6220103668394473	0.10041494540057605
0.6230103835063918	0.06666912085220297
0.6240104001733363	0.07825677169837304
0.6250104168402807	0.016614026470184493
0.6260104335072252	0.13000525186855896
0.6270104501741697	0.054551747910062495
0.6280104668411141	0.09392620031346041
0.6290104835080585	0.08310138492286404
0.6300105001750029	0.11089591649031619
0.6310105168419474	0.046895706560569815
0.6320105335088919	0.05285121609886449
0.6330105501758363	0.1187218602590441
0.6340105668427808	0.0628467649844623
0.6350105835097252	0.06519515840032448
0.6360106001766697	0.03586073028853149
0.6370106168436142	0.07137427397244193
0.6380106335105585	0.06659435812925912
0.639010650177503	0.07783138016030672
0.6400106668444474	0.12121216870712784
0.6410106835113919	0.07966238377167094
0.6420107001783364	0.013702113481161099
0.6430107168452808	0.09397350588724943
0.6440107335122253	0.043548143025249106
0.6450107501791698	0.11705354636254525
0.6460107668461141	0.032816496227652925
0.6470107835130586	0.05230857269035276
0.648010800180003	0.11782544999828001
0.6490108168469475	0.09359350799984445
0.650010833513892	0.045678419940912034
0.6510108501808364	0.07629655160859533
0.6520108668477809	0.03701061036989357
0.6530108835147252	0.08799100873551018
0.6540109001816697	0.07782939685802501
0.6550109168486142	0.088147003224386
0.6560109335155586	0.090024303462474
0.6570109501825031	0.08770608665445771
0.6580109668494476	0.12009952371122555
0.659010983516392	0.0532376039265313
0.6600110001833365	0.04819879080562131
0.6610110168502809	0.11029964746432856
0.6620110335172253	0.04565904185167646
0.6630110501841698	0.029101826303460955
0.6640110668511142	0.05292749457421732
0.6650110835180587	0.06868685781847153
0.6660111001850031	0.08076913575035356
0.6670111168519476	0.04624980742425057
0.6680111335188921	0.09274883355111127
0.6690111501858365	0.10799637850351791
0.670011166852781	0.09853124501700082
0.6710111835197254	0.0886249213082772
0.6720112001866698	0.10879351163609537
0.6730112168536143	0.056441644390869544
0.6740112335205587	0.09858316964920313
0.6750112501875032	0.05186882938107254
0.6760112668544477	0.09334300757016499
0.6770112835213921	0.10786372484468434
0.6780113001883366	0.07504581374430751
0.6790113168552809	0.04736125298080921
0.6800113335222254	0.06348225695880788
0.6810113501891699	0.06556736430955461
0.6820113668561143	0.08642069333741263
0.6830113835230588	0.08464541311601205
0.6840114001900032	0.062145340488253833
0.6850114168569477	0.1258979156318419
0.6860114335238922	0.04412420832314497
0.6870114501908365	0.06004867347985079
0.688011466857781	0.07126668204345682
0.6890114835247255	0.08617821382057177
0.6900115001916699	0.10744996151481105
0.6910115168586144	0.10382184920334399
0.6920115335255588	0.027466603871318128
0.6930115501925033	0.07066283338224053
0.6940115668594478	0.030666536881375165
0.6950115835263921	0.08506823970274854
0.6960116001933366	0.09659483984357645
0.697011616860281	0.07432090859159418
0.6980116335272255	0.10969047978943802
0.69901165019417	0.09252045017891375
0.7000116668611144	0.029923886114610873
0.7010116835280589	0.08888669196079692
0.7020117001950034	0.07444069672918294
0.7030117168619477	0.11451399208409983
0.7040117335288922	0.08904975257477424
0.7050117501958366	0.13389969544472116
0.7060117668627811	0.1339872837003132
0.7070117835297256	0.04526455799605281
0.70801180019667	0.05617934675905609
0.7090118168636145	0.1324356799906273
0.7100118335305589	0.08510725866978935
0.7110118501975033	0.039646061710019304
0.7120118668644478	0.03298740337891494
0.7130118835313922	0.10808172102993667
0.7140119001983367	0.12582749040434354
0.7150119168652811	0.11156180196754026
0.7160119335322256	0.05593744457695581
0.7170119501991701	0.07285589863079123
0.7180119668661145	0.04875604277206568
0.719011983533059	0.01694585639539716
0.7200120002000034	0.028357619410683176
0.7210120168669478	0.09399190836553625
0.7220120335338923	0.08402315049069066
0.7230120502008367	0.09435681546527391
0.7240120668677812	0.10648106401727715
0.7250120835347257	0.05334879247541838
0.7260121002016701	0.0982715513933561
0.7270121168686146	0.06143492468562733
0.7280121335355589	0.08012631437756007
0.7290121502025034	0.14376329071535132
0.7300121668694479	0.07876628662175952
0.7310121835363923	0.058279042929820515
0.7320122002033368	0.0646838164446405
0.7330122168702813	0.028710357498212602
0.7340122335372257	0.1104827225307616
0.7350122502041702	0.06022262821139806
0.7360122668711145	0.08274842528411933
0.737012283538059	0.07833802330830265
0.7380123002050035	0.03792394170511333
0.7390123168719479	0.1319738129732332
0.7400123335388924	0.09337730286573441
0.7410123502058368	0.10498375649503959
0.7420123668727813	0.13404161119972843
0.7430123835397258	0.03601857916237229
0.7440124002066701	0.05795583899996258
0.7450124168736146	0.11642664770440482
0.7460124335405591	0.07705868958780569
0.7470124502075035	0.09594938469536216
0.748012466874448	0.04532051248213476
0.7490124835413924	0.12432513465518893
0.7500125002083369	0.03556491985089783
0.7510125168752814	0.06240223402560939
0.7520125335422257	0.04322921913021115
0.7530125502091702	0.11756077468211223
0.7540125668761146	0.08497440210005994
0.7550125835430591	0.07206358447926271
0.7560126002100036	0.055350894830413534
0.757012616876948	0.04109952375051559
0.7580126335438925	0.1150576523725229
0.7590126502108369	0.09957360782976425
0.7600126668777814	0.10657848721955131
0.7610126835447258	0.10602273540619764
0.7620127002116702	0.08516733246613648
0.7630127168786147	0.04411577384916518
0.7640127335455592	0.12240114022468288
0.7650127502125036	0.09846859991859265
0.7660127668794481	0.0782757235341812
0.7670127835463925	0.08163568068276959
0.768012800213337	0.08585920252636152
0.7690128168802814	0.12437319001510964
0.7700128335472258	0.05940799726163286
0.7710128502141703	0.074217182277443
0.7720128668811147	0.08165922613353367
0.7730128835480592	0.02619552413278967
0.7740129002150037	0.11853563223904914
0.7750129168819481	0.0900461827700257
0.7760129335488926	0.13255877948804323
0.777012950215837	0.11616583225998689
0.7780129668827814	0.10461316256855824
0.7790129835497259	0.0753385554219599
0.7800130002166703	0.07530396935441494
0.7810130168836148	0.04190889065886363
0.7820130335505593	0.13356894860142246
0.7830130502175037	0.04076125613505947
0.7840130668844482	0.07584846089031215
0.7850130835513925	0.043460043554979816
0.786013100218337	0.08273409914125399
0.7870131168852815	0.0504082611160421
0.7880131335522259	0.09740472194389116
0.7890131502191704	0.03172606221247991
0.7900131668861148	0.07476575905077967
0.7910131835530593	0.07678233972176318
0.7920132002200038	0.08402587728879707
0.7930132168869481	0.04848359348062259
0.7940132335538926	0.062171431494724386
0.7950132502208371	0.09363808487708995
0.7960132668877815	0.08461184011898322
0.797013283554726	0.12885647295835756
0.7980133002216704	0.13216319030423776
0.7990133168886149	0.07514517953355627
0.8000133335555594	0.06630217034500176
0.8010133502225038	0.09401254972597992
0.8020133668894482	0.09305671339547342
0.8030133835563926	0.07246485705616527
0.8040134002233371	0.10324287254655443
0.8050134168902816	0.10083389692672441
0.806013433557226	0.09275473105899393
0.8070134502241705	0.1172156298368485
0.808013466891115	0.05668101663121226
0.8090134835580594	0.0356127435588629
0.8100135002250038	0.11849170360816019
0.8110135168919482	0.13122384785235316
0.8120135335588927	0.09240350978124863
0.8130135502258372	0.06465220505337647
0.8140135668927816	0.02854295916524528
0.8150135835597261	0.04442859620434636
0.8160136002266705	0.1283456773413527
0.817013616893615	0.09377595276418048
0.8180136335605594	0.03746407975392555
0.8190136502275038	0.022883361544993104
0.8200136668944483	0.12193383917751388
0.8210136835613928	0.05738063958910681
0.8220137002283372	0.13922826901013954
0.8230137168952817	0.0834044718235584
0.8240137335622261	0.08715549588129506
0.8250137502291706	0.07752850709768273
0.826013766896115	0.06326769121295478
0.8270137835630594	0.102984819596335
0.8280138002300039	0.13548885783515777
0.8290138168969483	0.12438925884686991
0.8300138335638928	0.11122543527095415
0.8310138502308373	0.11084580886883352
0.8320138668977817	0.1291620237797656
0.8330138835647262	0.12661190592251112
0.8340139002316705	0.04931093764179015
0.835013916898615	0.08477207460928561
0.8360139335655595	0.05401451369198849
0.8370139502325039	0.09149934601620027
0.8380139668994484	0.08692007299577066
0.8390139835663929	0.033882840677503655
0.8400140002333373	0.1258989562611431
0.8410140169002818	0.08035185154681623
0.8420140335672262	0.043073239858912746
0.8430140502341706	0.1270859857643044
0.8440140669011151	0.1063564414493166
0.8450140835680595	0.09799898180272731
0.846014100235004	0.06572722158671337
0.8470141169019484	0.12080879904473227
0.8480141335688929	0.07465826536898487
0.8490141502358374	0.04574495080959959
0.8500141669027818	0.08296274566769293
0.8510141835697262	0.1206342569976161
0.8520142002366707	0.070063837549367
0.8530142169036151	0.060035788031865926
0.8540142335705596	0.054340100367131466
0.855014250237504	0.09237176652428074
0.8560142669044485	0.09534980460566897
0.857014283571393	0.06106871366846903
0.8580143002383374	0.09132045462785895
0.8590143169052818	0.04016678610482313
0.8600143335722262	0.09594875905443874
0.8610143502391707	0.045444450979394264
0.8620143669061152	0.047272285543714876
0.8630143835730596	0.031212919034769877
0.8640144002400041	0.11336172275194065
0.8650144169069485	0.11328558520709076
0.866014433573893	0.11975737090180083
0.8670144502408375	0.10905820271513435
0.8680144669077818	0.052803068637614296
0.8690144835747263	0.07866572078862698
0.8700145002416708	0.08064298437745136
0.8710145169086152	0.11327780605497387
0.8720145335755597	0.02589734519989531
0.8730145502425041	0.05583556076170991
0.8740145669094486	0.0638565269282243
0.8750145835763931	0.11578130632913268
0.8760146002433374	0.10660609712540801
0.8770146169102819	0.08132890228039927
0.8780146335772263	0.09757051297049496
0.8790146502441708	0.0452772693007668
0.8800146669111153	0.0212469694290687
0.8810146835780597	0.06811137358619451
0.8820147002450042	0.12698597416354104
0.8830147169119487	0.1034793828273867
0.884014733578893	0.12050908748555728
0.8850147502458375	0.11455948599736027
0.8860147669127819	0.07790376985072647
0.8870147835797264	0.04038236063198072
0.8880148002466709	0.06529648666745236
0.8890148169136153	0.0470139647715783
0.8900148335805598	0.09390914404256774
0.8910148502475042	0.050203607427767034
0.8920148669144486	0.12034849136336666
0.8930148835813931	0.10943128882823697
0.8940149002483375	0.11255879554097643
0.895014916915282	0.09957851581128721
0.8960149335822265	0.08127555593586216
0.8970149502491709	0.05882226377262789
0.8980149669161154	0.07988884221702025
0.8990149835830598	0.10519629323515577
0.9000150002500042	0.05737333646138723
0.9010150169169487	0.09092774416759945
0.9020150335838931	0.05525005714448987
0.9030150502508376	0.09774905319539631
0.904015066917782	0.06983819122885927
0.9050150835847265	0.05309403801317602
0.906015100251671	0.10689976887241837
0.9070151169186154	0.03698091874262818
0.9080151335855599	0.11876400598490879
0.9090151502525042	0.03383854679285912
0.9100151669194487	0.03327273947628574
0.9110151835863932	0.06633189998163731
0.9120152002533376	0.05326193116021534
0.9130152169202821	0.03122445182576545
0.9140152335872266	0.08536926167969767
0.915015250254171	0.06008707963632626
0.9160152669211155	0.10790299738527376
0.9170152835880598	0.12115485253784174
0.9180153002550043	0.031115663640704238
0.9190153169219488	0.0888796559285808
0.9200153335888932	0.09509258858094001
0.9210153502558377	0.09978622787394757
0.9220153669227821	0.08330350823475563
0.9230153835897266	0.08910047786188204
0.9240154002566711	0.058431559884831515
0.9250154169236154	0.08449383126056452
0.9260154335905599	0.07331884249469
0.9270154502575044	0.0357810569607846
0.9280154669244488	0.09931959671771572
0.9290154835913933	0.04437233621388043
0.9300155002583377	0.12639588772512325
0.9310155169252822	0.0726827868031649
0.9320155335922267	0.1195260494955552
0.933015550259171	0.12481730018137817
0.9340155669261155	0.05033670624864742
0.9350155835930599	0.058193177545330974
0.9360156002600044	0.07330342920382675
0.9370156169269489	0.03651490555916974
0.9380156335938933	0.06506712513919541
0.9390156502608378	0.08898637059495115
0.9400156669277822	0.06502118873478627
0.9410156835947266	0.09729561777813533
0.9420157002616711	0.09615730478985515
0.9430157169286155	0.05013729994164127
0.94401573359556	0.06806548869266811
0.9450157502625045	0.0632115083915878
0.9460157669294489	0.10693374358593553
0.9470157835963934	0.09872929648254661
0.9480158002633378	0.09344072931800355
0.9490158169302823	0.07453034098315284
0.9500158335972267	0.11619426698732971
0.9510158502641711	0.10487258129758423
0.9520158669311156	0.03678573727822253
0.95301588359806	0.04755970715732852
0.9540159002650045	0.09117233705803056
0.955015916931949	0.10814636295134647
0.9560159335988934	0.10318685949759321
0.9570159502658379	0.08628994185751362
0.9580159669327823	0.06531501570223819
0.9590159835997267	0.12176515947802949
0.9600160002666712	0.10966630999581448
0.9610160169336156	0.0528946827691134
0.9620160336005601	0.13024365595670856
0.9630160502675046	0.07634313763888412
0.964016066934449	0.055669147593175435
0.9650160836013935	0.02889423127047851
0.9660161002683378	0.12549349336081175
0.9670161169352823	0.04943137373329967
0.9680161336022268	0.06997031651638669
0.9690161502691712	0.08161196608395202
0.9700161669361157	0.09415154673952353
0.9710161836030601	0.124933490086026
0.9720162002700046	0.12030543801458272
0.9730162169369491	0.08637178142501585
0.9740162336038934	0.0405486356869756
0.9750162502708379	0.07514142710665056
0.9760162669377824	0.09740647855769911
0.9770162836047268	0.09938907090307714
0.9780163002716713	0.09901989589932154
0.9790163169386157	0.12023838961820779
0.9800163336055602	0.09219484686619617
0.9810163502725047	0.13564896532604034
0.982016366939449	0.03158149278000888
0.9830163836063935	0.10435918045175105
0.9840164002733379	0.11696329696658805
0.9850164169402824	0.0955226575287762
0.9860164336072269	0.12002309764265251
0.9870164502741713	0.12158190239484412
0.9880164669411158	0.10089828802506917
0.9890164836080603	0.09057023088171143
0.9900165002750047	0.08272973900381189
0.9910165169419491	0.08536307010817842
0.9920165336088935	0.12012719925287073
0.993016550275838	0.09597615864972386
0.9940165669427825	0.03324305912580658
0.9950165836097269	0.05996258637103869
0.9960166002766714	0.048043769986874714
0.9970166169436158	0.0749307341141072
0.9980166336105603	0.08007687271479733
0.9990166502775047	0.07786192168276462
1.0000166669444492	0.061747175120509236
1.0010166836113936	0.0677704393567935
1.002016700278338	0.10479181144234896
1.0030167169452826	0.06274446073628072
1.004016733612227	0.05090751694771886
1.0050167502791714	0.10442928045750585
1.0060167669461157	0.04562207913671279
1.0070167836130604	0.06445878446607436
1.0080168002800047	0.1022575959174733
1.0090168169469491	0.04645823769435334
1.0100168336138937	0.12503558069841364
1.011016850280838	0.07324188155650051
1.0120168669477825	0.0953011176373945
1.013016883614727	0.10963117061724363
1.0140169002816715	0.050220743897998646
1.0150169169486158	0.09686932673231023
1.0160169336155604	0.0608723498934418
1.0170169502825048	0.10376487058546117
1.0180169669494492	0.06834077627304207
1.0190169836163936	0.07471586102304847
1.0200170002833382	0.09604478590998543
1.0210170169502826	0.04442107858767925
1.022017033617227	0.07347331516566158
1.0230170502841716	0.10901520435047256
1.024017066951116	0.0879431027259201
1.0250170836180603	0.08261074725570716
1.026017100285005	0.09609406059194225
1.0270171169519493	0.11819758652459907
1.0280171336188937	0.10612663161961802
1.0290171502858383	0.0701383589797983
1.0300171669527827	0.03543623726127811
1.031017183619727	0.03620514720759095
1.0320172002866714	0.06187791278237994
1.033017216953616	0.0776356105600078
1.0340172336205604	0.12008243242386409
1.0350172502875048	0.12513757996753133
1.0360172669544494	0.09528058299511744
1.0370172836213938	0.037331705380140016
1.0380173002883382	0.05366249020279498
1.0390173169552828	0.08084557487772805
1.0400173336222271	0.09527492048169511
1.0410173502891715	0.1230744957903803
1.0420173669561161	0.10903014942316866
1.0430173836230605	0.018094637321875794
1.044017400290005	0.07674328996183097
1.0450174169569493	0.13737415929499
1.0460174336238939	0.10496276488441686
1.0470174502908383	0.12089925468306639
1.0480174669577826	0.13005327263420072
1.0490174836247272	0.057373440033484824
1.0500175002916716	0.10364760940068715
1.051017516958616	0.10209564511888156
1.0520175336255606	0.06729730141903428
1.053017550292505	0.0710401429442386
1.0540175669594494	0.13264624947648285
1.055017583626394	0.13630156169543126
1.0560176002933384	0.09471942575708953
1.0570176169602827	0.12865098363053448
1.0580176336272271	0.09565421984227548
1.0590176502941717	0.06892727841986579
1.060017666961116	0.03485919255286796
1.0610176836280605	0.059083519678069955
1.062017700295005	0.058724176285512505
1.0630177169619495	0.0577143995647281
1.0640177336288938	0.09964714921759703
1.0650177502958385	0.05232254679637776
1.0660177669627828	0.04502633278321079
1.0670177836297272	0.08783159938607887
1.0680178002966716	0.10705256064486295
1.0690178169636162	0.10441587136933342
1.0700178336305606	0.06462898938439894
1.071017850297505	0.11678039843871232
1.0720178669644496	0.05664019053646298
1.073017883631394	0.06137119937918758
1.0740179002983383	0.07415676024828513
1.075017916965283	0.09111011356776105
1.0760179336322273	0.10815659851977236
1.0770179502991717	0.13852643433945533
1.0780179669661163	0.025015441966843546
1.0790179836330607	0.0783265241670072
1.080018000300005	0.06319417142188477
1.0810180169669494	0.10005109820166254
1.082018033633894	0.07012836147317955
1.0830180503008384	0.09855531688763529
1.0840180669677828	0.09320800100322345
1.0850180836347274	0.026478506477658217
1.0860181003016718	0.08775407371548519
1.0870181169686162	0.09558416018807628
1.0880181336355608	0.09010461110805291
1.0890181503025052	0.031094957313030823
1.0900181669694495	0.12004757436056739
1.0910181836363941	0.12121113330473339
1.0920182003033385	0.09823256030770998
1.093018216970283	0.038067356832751434
1.0940182336372273	0.05471130225742222
1.0950182503041719	0.0428179786053253
1.0960182669711163	0.055779993300361035
1.0970182836380606	0.12580822341252074
1.0980183003050052	0.13216830222002068
1.0990183169719496	0.09416935704060635
1.100018333638894	0.07091575438214613
1.1010183503058386	0.10012930598943952
1.102018366972783	0.131917529410794
1.1030183836397274	0.03803937031911458
1.104018400306672	0.07044996541808816
1.1050184169736164	0.12405982069008549
1.1060184336405607	0.04810113141981008
1.1070184503075051	0.08972576135277037
1.1080184669744497	0.04845191005291673
1.109018483641394	0.11198724772932957
1.1100185003083385	0.06942496525702664
1.111018516975283	0.02459050090557221
1.1120185336422275	0.0598299479645519
1.1130185503091719	0.053653016876084286
1.1140185669761165	0.07212214451609081
1.1150185836430608	0.047197705027013925
1.1160186003100052	0.1142609367352621
1.1170186169769498	0.03937221365748812
1.1180186336438942	0.06862765610268097
1.1190186503108386	0.10776638111346179
1.120018666977783	0.04945670390093601
1.1210186836447276	0.11095675526625899
1.122018700311672	0.08349176016453147
1.1230187169786163	0.09966022539529483
1.124018733645561	0.037571614635502834
1.1250187503125053	0.05081968694686225
1.1260187669794497	0.04134444064217538
1.1270187836463943	0.03720778491138528
1.1280188003133387	0.07918385598061974
1.129018816980283	0.055747257740377656
1.1300188336472277	0.07305422390926213
1.131018850314172	0.0536195178516964
1.1320188669811164	0.09961937794330586
1.1330188836480608	0.0846281728560471
1.1340189003150054	0.11108983198026831
1.1350189169819498	0.06874665049967195
1.1360189336488942	0.07571042210655068
1.1370189503158388	0.09096876939151653
1.1380189669827832	0.047001018844516164
1.1390189836497275	0.10795650407572666
1.1400190003166721	0.08494411262745774
1.1410190169836165	0.06424167093742306
1.142019033650561	0.14490899944554758
1.1430190503175053	0.09205826706860998
1.1440190669844499	0.07526791213195208
1.1450190836513943	0.07683283283283177
1.1460191003183386	0.12328676371522879
1.1470191169852832	0.05206151924724131
1.1480191336522276	0.04608076707889502
1.149019150319172	0.09504691933089596
1.1500191669861166	0.06948097746746745
1.151019183653061	0.09230333199241707
1.1520192003200054	0.04637809420168677
1.15301921698695	0.10131607514099263
1.1540192336538944	0.10327730268860119
1.1550192503208387	0.10698794254740214
1.1560192669877831	0.10230998214398347
1.1570192836547277	0.018721311612628744
1.158019300321672	0.03402846908230342
1.1590193169886165	0.053406203138109655
1.160019333655561	0.022843200931313118
1.1610193503225055	0.1454612088294379
1.1620193669894499	0.08930977497128466
1.1630193836563945	0.04528560395705146
1.1640194003233388	0.07655905283491937
1.1650194169902832	0.09014797875385194
1.1660194336572278	0.05941668305022056
1.1670194503241722	0.05913441097765619
1.1680194669911166	0.10681920237002238
1.169019483658061	0.08914521861124053
1.1700195003250056	0.09872470426053691
1.17101951699195	0.11613906076176862
1.1720195336588943	0.08185331102852768
1.173019550325839	0.08198065204174274
1.1740195669927833	0.050726849925275784
1.1750195836597277	0.06059675871512449
1.1760196003266723	0.09503259597834164
1.1770196169936167	0.0763292069021368
1.178019633660561	0.09002841176945209
1.1790196503275057	0.05806425908243892
1.18001966699445	0.10355531668515112
1.1810196836613944	0.06403993040774741
1.1820197003283388	0.040844401110352216
1.1830197169952834	0.097348564569123
1.1840197336622278	0.07478221846227553
1.1850197503291722	0.03685804156659151
1.1860197669961168	0.12042723189913151
1.1870197836630612	0.03671613566090449
1.1880198003300055	0.05391272260088044
1.1890198169969501	0.08680032849655459
1.1900198336638945	0.06845653152704162
1.191019850330839	0.11877903551832499
1.1920198669977835	0.05356750444198856
1.1930198836647279	0.10436488656622668
1.1940199003316723	0.133945515281156
1.1950199169986166	0.12375120212922562
1.1960199336655613	0.0794770062139788
1.1970199503325056	0.03911940522304173
1.19801996699945	0.12994100512717607
1.1990199836663946	0.0989147199752221
1.200020000333339	0.03934983411474216
1.2010200170002834	0.03580567483635225
1.202020033667228	0.0973156784101542
1.2030200503341724	0.04833065942630388
1.2040200670011167	0.10550118572315705
1.2050200836680613	0.09233626805192578
1.2060201003350057	0.03584689095690759
1.20702011700195	0.06023464691194802
1.2080201336688945	0.09751707607382519
1.209020150335839	0.08058724039942712
1.2100201670027835	0.056148250110845156
1.2110201836697279	0.13480804755023887
1.2120202003366725	0.06459492019609128
1.2130202170036168	0.11163805204077558
1.2140202336705612	0.10971479833222364
1.2150202503375058	0.06527945573311578
1.2160202670044502	0.07181968939220389
1.2170202836713946	0.12213212207112659
1.218020300338339	0.11539007698197527
1.2190203170052836	0.022789320727485997
1.220020333672228	0.0686185655702833
1.2210203503391723	0.08935109968544946
1.222020367006117	0.08668246747647712
1.2230203836730613	0.035939533091877626
1.2240204003400057	0.10807113650381181
1.2250204170069503	0.04789416620153291
1.2260204336738947	0.05368867567963474
1.227020450340839	0.11386429351918229
1.2280204670077837	0.08368270342195389
1.229020483674728	0.14113311737409204
1.2300205003416724	0.1201213853384807
1.2310205170086168	0.05127650376817165
1.2320205336755614	0.059644904646262036
1.2330205503425058	0.0873066826692526
1.2340205670094502	0.10097623327901216
1.2350205836763948	0.03832358120968413
1.2360206003433392	0.12405920675804256
1.2370206170102835	0.10146000479607328
1.2380206336772281	0.09469763206446791
1.2390206503441725	0.12320287192921164
1.240020667011117	0.09841608446486927
1.2410206836780615	0.08155855472278073
1.242020700345006	0.045159326169028
1.2430207170119503	0.029351836008293008
1.2440207336788947	0.1284943346690655
1.2450207503458393	0.07564530469885504
1.2460207670127836	0.06400256675610001
1.247020783679728	0.03154381188031335
1.2480208003466726	0.12173575999937791
1.249020817013617	0.08934272220972256
1.2500208336805614	0.08201311935874861
1.251020850347506	0.04438034901092718
1.2520208670144504	0.10322346162561835
1.2530208836813947	0.10573261090155892
1.2540209003483394	0.06406386263537547
1.2550209170152837	0.10800755366109424
1.2560209336822281	0.044749078035219464
1.2570209503491725	0.08979108312759689
1.258020967016117	0.08846814640252414
1.2590209836830615	0.1044863760938369
1.2600210003500059	0.07036329104094954
1.2610210170169505	0.08983492938624149
1.2620210336838948	0.09726892046155466
1.2630210503508392	0.08753493512345242
1.2640210670177838	0.06453359799667566
1.2650210836847282	0.12426196373853148
1.2660211003516726	0.12145240182614826
1.2670211170186172	0.09546754795801078
1.2680211336855616	0.10873681365089163
1.269021150352506	0.10896106177679231
1.2700211670194503	0.0334012805658163
1.271021183686395	0.12260549750857645
1.2720212003533393	0.0984224383206306
1.2730212170202837	0.059308585077748666
1.2740212336872283	0.028613181099796145
1.2750212503541727	0.12120548884480623
1.276021267021117	0.052475645579789953
1.2770212836880617	0.11646342066808496
1.278021300355006	0.06118939906783091
1.2790213170219504	0.07117348347435701
1.2800213336888948	0.08426212253996866
1.2810213503558394	0.05695567867974988
1.2820213670227838	0.09623453599980925
1.2830213836897282	0.08066033415901203
1.2840214003566728	0.07569145095906739
1.2850214170236172	0.11894785287051803
1.2860214336905615	0.04989661407494521
1.2870214503575061	0.05394785083392113
1.2880214670244505	0.07456969025101666
1.289021483691395	0.11606906770824227
1.2900215003583395	0.13318166858015734
1.291021517025284	0.13152308348814243
1.2920215336922283	0.06341448240746773
1.2930215503591727	0.04340518757911785
1.2940215670261173	0.075331999190593
1.2950215836930616	0.04839469228510465
1.296021600360006	0.0568759834496939
1.2970216170269506	0.03182261767924979
1.298021633693895	0.11536272009345165
1.2990216503608394	0.03718091092107102
1.300021667027784	0.10780822031210285
1.3010216836947284	0.028708724619260165
1.3020217003616728	0.08966766814519564
1.3030217170286174	0.06147723068701567
1.3040217336955617	0.08410294939849082
1.3050217503625061	0.08071403371013648
1.3060217670294505	0.07709360884005702
1.307021783696395	0.1118135337036736
1.3080218003633395	0.06892094026061941
1.3090218170302839	0.04475870846536922
1.3100218336972285	0.1105230647201216
1.3110218503641728	0.061272505105464725
1.3120218670311172	0.04182656977357512
1.3130218836980618	0.12414486689305072
1.3140219003650062	0.1290093607888355
1.3150219170319506	0.08187195390232525
1.3160219336988952	0.1239511962537156
1.3170219503658396	0.06736378861509071
1.318021967032784	0.10589142744856878
1.3190219836997283	0.0695213684000017
1.320022000366673	0.08780911781796905
1.3210220170336173	0.062320232322622224
1.3220220337005617	0.06352565108722862
1.3230220503675063	0.08683544131280731
1.3240220670344507	0.059446640449799026
1.325022083701395	0.0768100651394708
1.3260221003683397	0.12548728174906204
1.327022117035284	0.07556526024654864
1.3280221337022284	0.08290832171955205
1.329022150369173	0.05017240551423026
1.3300221670361174	0.09045591238484288
1.3310221837030618	0.12188389774211286
1.3320222003700062	0.1061984895942137
1.3330222170369508	0.1253351048919483
1.3340222337038952	0.1136968987028315
1.3350222503708395	0.1260259155977853
1.3360222670377842	0.06513298967820222
1.3370222837047285	0.07836853474650106
1.338022300371673	0.12344029172830634
1.3390223170386175	0.06904648012562634
1.340022333705562	0.0613083093476397
1.3410223503725063	0.05178428353756979
1.3420223670394509	0.05359508621982376
1.3430223837063953	0.08796325619757724
1.3440224003733396	0.10245954958779581
1.345022417040284	0.1370813615622019
1.3460224337072286	0.11037901025753943
1.347022450374173	0.1112917197814964
1.3480224670411174	0.05481453895353888
1.349022483708062	0.11272489694386337
1.3500225003750064	0.08036592567655804
1.3510225170419508	0.049743041181494044
1.3520225337088954	0.10365820861849812
1.3530225503758397	0.09935805499484668
1.3540225670427841	0.02723215442001737
1.3550225837097285	0.13765563366450678
1.356022600376673	0.05422664607321925
1.3570226170436175	0.0866660919101135
1.3580226337105619	0.12043557007578297
1.3590226503775065	0.11834724960167756
1.3600226670444509	0.05806444480119725
1.3610226837113952	0.08709046762297379
1.3620227003783398	0.11463795474216885
1.3630227170452842	0.07672367448567231
1.3640227337122286	0.07678298361297231
1.3650227503791732	0.03091497292559489
1.3660227670461176	0.105557459168586
1.367022783713062	0.031028154425644265
1.3680228003800063	0.0408081501064113
1.369022817046951	0.09429716285273701
1.3700228337138953	0.08028277606052123
1.3710228503808397	0.06379694579229245
1.3720228670477843	0.1112971287124605
1.3730228837147287	0.09459569010004254
1.374022900381673	0.09554766588808002
1.3750229170486177	0.031713136648377105
1.376022933715562	0.07931596052715903
1.3770229503825064	0.08732641568542562
1.378022967049451	0.10690065774364897
1.3790229837163954	0.05301529551728061
1.3800230003833398	0.11454759173550937
1.3810230170502842	0.07995101081642499
1.3820230337172288	0.0462540236955854
1.3830230503841732	0.06744529006678607
1.3840230670511176	0.019491816526994558
1.3850230837180622	0.11885335887420627
1.3860231003850065	0.06537771418969072
1.387023117051951	0.04285032456160726
1.3880231337188955	0.10095673226105824
1.38902315038584	0.05369515048120725
1.3900231670527843	0.09339849321694743
1.3910231837197289	0.0660021157205854
1.3920232003866733	0.0756202040805973
1.3930232170536176	0.058665969602399254
1.394023233720562	0.04898700434245321
1.3950232503875066	0.09202543005888603
1.396023267054451	0.06880644872726342
1.3970232837213954	0.07954786917643444
1.39802330038834	0.06706569804589786
1.3990233170552844	0.10977229634616283
1.4000233337222288	0.025034184702425157
1.4010233503891734	0.0877910000795701
1.4020233670561177	0.056165021972869655
1.4030233837230621	0.0970115419912049
1.4040234003900067	0.13977635177182504
1.405023417056951	0.06263119847350893
1.4060234337238955	0.11124724839095737
1.4070234503908399	0.07433421259106343
1.4080234670577845	0.12790444593045044
1.4090234837247289	0.0739548387817066
1.4100235003916732	0.09212508798537493
1.4110235170586178	0.06589844883472087
1.4120235337255622	0.1349528297753657
1.4130235503925066	0.12456004419526177
1.4140235670594512	0.10425718638232334
1.4150235837263956	0.09088224022558586
1.41602360039334	0.04729398462268326
1.4170236170602846	0.03636551394703906
1.418023633727229	0.06238012400111287
1.4190236503941733	0.04475834425181181
1.4200236670611177	0.05973893574525603
1.4210236837280623	0.06112336265053843
1.4220237003950067	0.09942695672999322
1.423023717061951	0.044886917027079684
1.4240237337288957	0.09170996072088158
1.42502375039584	0.11323049596814565
1.4260237670627844	0.05259766082765432
1.427023783729729	0.13532270044042435
1.4280238003966734	0.10242365055721352
1.4290238170636178	0.027443713616853584
1.4300238337305622	0.12432278929264168
1.4310238503975068	0.1127629049639633
1.4320238670644512	0.049257453204804416
1.4330238837313956	0.07937392779415871
1.4340239003983402	0.08037005314668962
1.4350239170652845	0.04244631183275944
1.436023933732229	0.0765005292197207
1.4370239503991735	0.13496871341244976
1.438023967066118	0.11019701718103286
1.4390239837330623	0.05895952236135994
1.4400240004000069	0.10247151521187198
1.4410240170669513	0.0825922672758668
1.4420240337338956	0.0434968383484504
1.44302405040084	0.0553321641469886
1.4440240670677846	0.12214818615119416
1.445024083734729	0.0937417627096848
1.4460241004016734	0.06456499980232261
1.447024117068618	0.09476466680328817
1.4480241337355624	0.1131963534561551
1.4490241504025068	0.14778192965752351
1.4500241670694514	0.0750277947187235
1.4510241837363957	0.07047386106103265
1.4520242004033401	0.10203523326737884
1.4530242170702847	0.07593408252346813
1.454024233737229	0.06772273845323813
1.4550242504041735	0.03390062237577446
1.4560242670711179	0.08211248269690478
1.4570242837380625	0.07127852612852775
1.4580243004050069	0.0973597301072255
1.4590243170719512	0.09851800250104084
1.4600243337388958	0.1034359125534088
1.4610243504058402	0.10161195417975627
1.4620243670727846	0.03916857334837261
1.4630243837397292	0.12374964191669824
1.4640244004066736	0.0987314123704845
1.465024417073618	0.07147477614740932
1.4660244337405626	0.045485545890983456
1.467024450407507	0.08399125616367384
1.4680244670744513	0.07833437380482498
1.4690244837413957	0.045775171132151043
1.4700245004083403	0.10868460874732017
1.4710245170752847	0.11607988995834723
1.472024533742229	0.0660821354106487
1.4730245504091737	0.09531848244624254
1.474024567076118	0.08683809457624406
1.4750245837430624	0.08660827260379296
1.476024600410007	0.05566080438464233
1.4770246170769514	0.03628602808814288
1.4780246337438958	0.09575828472702845
1.4790246504108404	0.07202512843997724
1.4800246670777848	0.09075929379066186
1.4810246837447292	0.08620771544405574
1.4820247004116736	0.1296847808623026
1.4830247170786182	0.09270147890989233
1.4840247337455625	0.0542891206062279
1.485024750412507	0.1426722316623657
1.4860247670794515	0.04914373327337095
1.487024783746396	0.10564688599854637
1.4880248004133403	0.06004957635639574
1.489024817080285	0.11987718873066591
1.4900248337472293	0.0993819887435193
1.4910248504141737	0.142859952338473
1.4920248670811183	0.040346297001393125
1.4930248837480626	0.036742038351258
1.494024900415007	0.12376762016197779
1.4950249170819514	0.09202569031055635
1.496024933748896	0.1135228370829533
1.4970249504158404	0.10316531331189041
1.4980249670827848	0.05811352367660628
1.4990249837497294	0.1040844573681148
1.5000250004166737	0.04609782342798072
1.5010250170836181	0.06502938753423611
1.5020250337505627	0.053038628866551286
1.5030250504175071	0.09863884041332821
1.5040250670844515	0.13143649262775778
1.5050250837513959	0.06285419198842333
1.5060251004183405	0.11621088298002472
1.5070251170852849	0.07606436580594206
1.5080251337522292	0.032699692261479035
1.5090251504191738	0.05371781728638357
1.5100251670861182	0.04235077044158626
1.5110251837530626	0.11863915906415572
1.5120252004200072	0.043823240730619016
1.5130252170869516	0.04645023462418685
1.514025233753896	0.09821253576390387
1.5150252504208406	0.04468466214513821
1.516025267087785	0.07790313511831702
1.5170252837547293	0.10408448440997975
1.5180253004216737	0.07992148220980377
1.5190253170886183	0.052919958752247635
1.5200253337555627	0.05509731867677987
1.521025350422507	0.08355008126685516
1.5220253670894517	0.042498656820712515
1.523025383756396	0.061947042898159235
1.5240254004233404	0.08716462320206306
1.525025417090285	0.07170001173327001
1.5260254337572294	0.11590587783612855
1.5270254504241738	0.06849647237537926
1.5280254670911184	0.1324931381795877
1.5290254837580628	0.11417113882907892
1.5300255004250072	0.036534160873076184
1.5310255170919516	0.09992058678675654
1.5320255337588962	0.10516140939478512
1.5330255504258405	0.03839446357993222
1.534025567092785	0.05058014962523796
1.5350255837597295	0.07052718693844273
1.536025600426674	0.10693264822407296
1.5370256170936183	0.098927709747952
1.538025633760563	0.06609746811712135
1.5390256504275073	0.12696352055159907
1.5400256670944517	0.05890966293039481
1.5410256837613963	0.035407722349387834
1.5420257004283406	0.1455451199738862
1.543025717095285	0.08548338713830417
1.5440257337622294	0.08745890403274971
1.545025750429174	0.09693723114845718
1.5460257670961184	0.03214526119944654
1.5470257837630628	0.06849698271225796
1.5480258004300074	0.11240362054816463
1.5490258170969518	0.04649620274123824
1.5500258337638961	0.04128600744753348
1.5510258504308407	0.11935897622845909
1.5520258670977851	0.05234807633274528
1.5530258837647295	0.12253272084405951
1.554025900431674	0.07251856087188664
1.5550259170986185	0.12284248781424975
1.5560259337655629	0.10715616530152758
1.5570259504325072	0.057074496653254335
1.5580259670994518	0.07539255141991019
1.5590259837663962	0.06836358461948644
1.5600260004333406	0.07109651588999161
1.5610260171002852	0.09599307376994295
1.5620260337672296	0.04171371244100319
1.563026050434174	0.09169792232303388
1.5640260671011186	0.04631291602267139
1.565026083768063	0.08180422689042798
1.5660261004350073	0.05443178338890234
1.567026117101952	0.051909814965574515
1.5680261337688963	0.05848931094904609
1.5690261504358407	0.04924864282176219
1.570026167102785	0.062415207358214396
1.5710261837697297	0.07800807193191713
1.572026200436674	0.06697239744010641
1.5730262171036185	0.06029861418777256
1.574026233770563	0.1339904946544169
1.5750262504375074	0.08132076650981802
1.5760262671044518	0.09994838184144107
1.5770262837713964	0.09709797702379605
1.5780263004383408	0.08754845960144696
1.5790263171052852	0.10860615158127426
1.5800263337722296	0.08211288926637467
1.5810263504391742	0.051956091962951576
1.5820263671061185	0.08671946962143227
1.583026383773063	0.057848581721117204
1.5840264004400075	0.07372059372668731
1.585026417106952	0.12143788401104136
1.5860264337738963	0.11590859927183442
1.587026450440841	0.045014201635923665
1.5880264671077853	0.05135254559798913
1.5890264837747297	0.10180205255682595
1.5900265004416743	0.040360554735972415
1.5910265171086186	0.13589613914900586
1.592026533775563	0.06428968845198565
1.5930265504425074	0.039980457063192296
1.594026567109452	0.08037590865889625
1.5950265837763964	0.04103865448406603
1.5960266004433408	0.08479367986244499
1.5970266171102854	0.09715001676735702
1.5980266337772298	0.13161472946559136
1.5990266504441741	0.09613108096842718
1.6000266671111187	0.0701686351450834
1.6010266837780631	0.104310173781851
1.6020267004450075	0.12187290370865954
1.603026717111952	0.06391788980012884
1.6040267337788965	0.09401999386585844
1.6050267504458409	0.028215532357915043
1.6060267671127852	0.0534539378351529
1.6070267837797299	0.06282006482618643
1.6080268004466742	0.05836078521896798
1.6090268171136186	0.09978528526480412
1.6100268337805632	0.12170816826323218
1.6110268504475076	0.03530048763163936
1.612026867114452	0.04421987503391548
1.6130268837813966	0.04152466266102353
1.614026900448341	0.10316144273818043
1.6150269171152853	0.12118632868683377
1.61602693378223	0.133260878037002
1.6170269504491743	0.12249466742542293
1.6180269671161187	0.12379429199672985
1.619026983783063	0.10175950073288925
1.6200270004500077	0.1283670351066504
1.621027017116952	0.07109898706337564
1.6220270337838965	0.11328791644135061
1.623027050450841	0.10018443597245763
1.6240270671177854	0.10456591330193533
1.6250270837847298	0.04347449790685082
1.6260271004516744	0.07151433427230945
1.6270271171186188	0.09549976944775564
1.6280271337855632	0.06628767550906962
1.6290271504525078	0.11968497215886094
1.6300271671194522	0.15491241238665615
1.6310271837863966	0.03511894153302149
1.632027200453341	0.1019765986693989
1.6330272171202855	0.08599510741762113
1.63402723378723	0.1108652026759047
1.6350272504541743	0.10589011619431074
1.636027267121119	0.03630731412468963
1.6370272837880633	0.11295359868376807
1.6380273004550077	0.11482994787961534
1.6390273171219523	0.11439047433403755
1.6400273337888966	0.10534588215232303
1.641027350455841	0.11141642231256126
1.6420273671227856	0.016322669939190095
1.64302738378973	0.09868102033178136
1.6440274004566744	0.059863519824087254
1.6450274171236188	0.06012911196749602
1.6460274337905634	0.0463959809549388
1.6470274504575078	0.10492207730122635
1.6480274671244521	0.04017636341042387
1.6490274837913967	0.12309528782378186
1.6500275004583411	0.08199931928920155
1.6510275171252855	0.05676789043400223
1.65202753379223	0.08505535691721763
1.6530275504591745	0.05470874465922602
1.6540275671261189	0.07716236698136036
1.6550275837930633	0.11552623432565153
1.6560276004600079	0.01679832224597253
1.6570276171269522	0.04404138271869042
1.6580276337938966	0.08184742044988932
1.6590276504608412	0.08638006931489572
1.6600276671277856	0.08350889024428651
1.66102768379473	0.09643161681870767
1.6620277004616746	0.05225016159282152
1.663027717128619	0.04249458015477847
1.6640277337955633	0.11449161158435542
1.665027750462508	0.08898883675883906
1.6660277671294523	0.02845236089773439
1.6670277837963967	0.12162211758114597
1.668027800463341	0.10070661592937864
1.6690278171302857	0.05963523762413618
1.67002783379723	0.08998571029178361
1.6710278504641745	0.08232279086921436
1.672027867131119	0.07807061138787129
1.6730278837980634	0.10853603375621117
1.6740279004650078	0.0965727373328664
1.6750279171319524	0.08346395818292775
1.6760279337988968	0.06145234448762201
1.6770279504658412	0.09294201522114565
1.6780279671327858	0.03663589905080995
1.6790279837997302	0.08968140624576287
1.6800280004666746	0.05015030242231301
1.681028017133619	0.11497538073646682
1.6820280338005635	0.05914718635514975
1.683028050467508	0.11921352285396794
1.6840280671344523	0.11021139401073926
1.685028083801397	0.040285183493797914
1.6860281004683413	0.055998594161234885
1.6870281171352857	0.09682626337994195
1.6880281338022303	0.04144415127990183
1.6890281504691746	0.06087887418314619
1.690028167136119	0.12381277846882266
1.6910281838030636	0.10430867131437904
1.692028200470008	0.12685344070683194
1.6930282171369524	0.1029089252279212
1.6940282338038968	0.12675777997464735
1.6950282504708414	0.0914925807503283
1.6960282671377858	0.08755207599918641
1.6970282838047301	0.03223161270536641
1.6980283004716747	0.0666285108428572
1.6990283171386191	0.13746472656251005
1.7000283338055635	0.08687162374810523
1.701028350472508	0.10170981517064503
1.7020283671394525	0.14666765706288887
1.7030283838063969	0.038686052378967425
1.7040284004733415	0.09899519913423802
1.7050284171402859	0.10155663737791576
1.7060284338072302	0.033828823380247744
1.7070284504741746	0.07543673279926456
1.7080284671411192	0.10211879446626307
1.7090284838080636	0.08646183128665572
1.710028500475008	0.10594709897328305
1.7110285171419526	0.05899890424356342
1.712028533808897	0.07619002897019407
1.7130285504758413	0.11943502641588981
1.714028567142786	0.09480829994028274
1.7150285838097303	0.06693395840079472
1.7160286004766747	0.09902400220090372
1.7170286171436193	0.08633778655452605
1.7180286338105637	0.11997248635609357
1.719028650477508	0.053698396825554634
1.7200286671444525	0.12342164059592224
1.721028683811397	0.09768570630518489
1.7220287004783414	0.06723430090493195
1.7230287171452858	0.09685101805205194
1.7240287338122304	0.04108201455758731
1.7250287504791748	0.13258225850205246
1.7260287671461192	0.11624692394665732
1.7270287838130638	0.051035111433120756
1.7280288004800082	0.06676510471386331
1.7290288171469526	0.01405558309094456
1.730028833813897	0.049390541409306814
1.7310288504808415	0.08832783421481159
1.732028867147786	0.06672511941488052
1.7330288838147303	0.04033557532261303
1.734028900481675	0.11152156727169513
1.7350289171486193	0.13458910102441796
1.7360289338155637	0.02373077768140592
1.7370289504825083	0.13866992399766537
1.7380289671494527	0.04662522312524371
1.739028983816397	0.0710645746273712
1.7400290004833416	0.13653649555518294
1.741029017150286	0.07450177974011332
1.7420290338172304	0.032572364696257516
1.7430290504841748	0.10073070347478624
1.7440290671511194	0.12003312738935444
1.7450290838180638	0.060718630371189346
1.7460291004850081	0.06619374227075256
1.7470291171519527	0.05115379948758756
1.7480291338188971	0.1269435497559393
1.7490291504858415	0.10952000465855727
1.7500291671527861	0.02193206948694445
1.7510291838197305	0.06750712715303597
1.7520292004866749	0.05251225408052888
1.7530292171536195	0.1294082454917158
1.7540292338205639	0.04612493926918091
1.7550292504875082	0.06396468936037883
1.7560292671544526	0.05531601242608754
1.7570292838213972	0.09872596027994732
1.7580293004883416	0.024317686955346123
1.759029317155286	0.10445428073789911
1.7600293338222306	0.039521849850006584
1.761029350489175	0.0438014284722617
1.7620293671561194	0.08014489344422612
1.763029383823064	0.05206496054885961
1.7640294004900083	0.083286440784766
1.7650294171569527	0.09059937009200823
1.7660294338238973	0.10796433028557846
1.7670294504908417	0.12963630509476298
1.768029467157786	0.11567097233716409
1.7690294838247305	0.08316626011738656
1.770029500491675	0.040782036442593365
1.7710295171586194	0.10169257362776003
1.7720295338255638	0.05280974905128207
1.7730295504925084	0.10274517868372472
1.7740295671594528	0.020173141080625658
1.7750295838263972	0.10861442314587895
1.7760296004933418	0.048584675231096934
1.7770296171602862	0.03023900981030487
1.7780296338272306	0.07670062947518676
1.7790296504941752	0.10597030531779326
1.7800296671611195	0.09012730845279136
1.781029683828064	0.05239331156501628
1.7820297004950083	0.09695009593999926
1.783029717161953	0.060638415899900405
1.7840297338288973	0.10157595477760441
1.7850297504958417	0.07800913321427662
1.7860297671627863	0.0778159756782259
1.7870297838297307	0.07973589285586657
1.788029800496675	0.044506918980722544
1.7890298171636196	0.05709797108969543
1.790029833830564	0.06961012082280171
1.7910298504975084	0.09666849953567618
1.792029867164453	0.07446048259652069
1.7930298838313974	0.08211659166969075
1.7940299004983418	0.03400383057398658
1.7950299171652861	0.0880466493949683
1.7960299338322308	0.06566206132569874
1.7970299504991751	0.057439368941994154
1.7980299671661195	0.06465636203394862
1.7990299838330641	0.03802557009025658
1.8000300005000085	0.04606207722400075
1.8010300171669529	0.06149615827097223
1.8020300338338975	0.03634461652827893
1.8030300505008419	0.057730627601505914
1.8040300671677862	0.11064939905847612
1.8050300838347306	0.13672165172552458
1.8060301005016752	0.06273307201262658
1.8070301171686196	0.015806520307566373
1.808030133835564	0.1146979326289933
1.8090301505025086	0.0752426160535863
1.810030167169453	0.08251085551269967
1.8110301838363974	0.07137302430737648
1.812030200503342	0.056552663588507676
1.8130302171702863	0.12625534612343192
1.8140302338372307	0.12285873354262104
1.8150302505041753	0.05150356610310178
1.8160302671711197	0.06631054855362467
1.817030283838064	0.0378594120486693
1.8180303005050085	0.06317235483168282
1.819030317171953	0.12366630581789868
1.8200303338388975	0.1037325160998055
1.8210303505058418	0.1321418529352012
1.8220303671727864	0.023051227943730625
1.8230303838397308	0.11145738319562021
1.8240304005066752	0.10686453585716872
1.8250304171736198	0.11770678974941835
1.8260304338405642	0.10794031724632949
1.8270304505075086	0.08381090940682293
1.8280304671744532	0.10092443805849148
1.8290304838413975	0.1314207570264018
1.830030500508342	0.12468161329420344
1.8310305171752863	0.016629182870230387
1.832030533842231	0.12468659707532664
1.8330305505091753	0.07992426639703046
1.8340305671761197	0.09777661277043957
1.8350305838430643	0.047330962783607586
1.8360306005100087	0.12043482110116238
1.837030617176953	0.11363468919525953
1.8380306338438976	0.08213979247070384
1.839030650510842	0.09296829732521235
1.8400306671777864	0.07297833986776278
1.841030683844731	0.07983379168185754
1.8420307005116754	0.04232613543075124
1.8430307171786198	0.11203674222636048
1.8440307338455642	0.08632332194932237
1.8450307505125088	0.10494362875894042
1.8460307671794531	0.11374668379318023
1.8470307838463975	0.130895770401127
1.8480308005133421	0.08232038469991435
1.8490308171802865	0.04152751130895568
1.8500308338472309	0.09685106862107269
1.8510308505141755	0.03741488000074938
1.8520308671811199	0.026747112571506956
1.8530308838480642	0.12445890490834549
1.8540309005150089	0.1074532576129951
1.8550309171819532	0.08118964080369584
1.8560309338488976	0.11902681929450154
1.857030950515842	0.07200865828207231
1.8580309671827866	0.11998471296161682
1.859030983849731	0.04235452795694023
1.8600310005166754	0.02182545721116451
1.86103101718362	0.06375652615557567
1.8620310338505643	0.11261867697609397
1.8630310505175087	0.04857771160699666
1.8640310671844533	0.10433955411014445
1.8650310838513977	0.02407241888713659
1.866031100518342	0.053775553605329346
1.8670311171852865	0.1087266469144812
1.868031133852231	0.11460036740653733
1.8690311505191755	0.06056160232786741
1.8700311671861198	0.043063922443475566
1.8710311838530644	0.11473425541998043
1.8720312005200088	0.05753647331989812
1.8730312171869532	0.10774113956016618
1.8740312338538978	0.06490832696372482
1.8750312505208422	0.06786534540901865
1.8760312671877866	0.024610889693318976
1.8770312838547312	0.02805940064954153
1.8780313005216756	0.06932247271439997
1.87903131718862	0.07373667963258276
1.8800313338555643	0.07611296817618006
1.881031350522509	0.07199916228254392
1.8820313671894533	0.0567717236824506
1.8830313838563977	0.0399948686042159
1.8840314005233423	0.08605190153459222
1.8850314171902867	0.04214794028824366
1.886031433857231	0.10148421363843962
1.8870314505241756	0.10545417320319603
1.88803146719112	0.07608503979563447
1.8890314838580644	0.018181527125699107
1.890031500525009	0.11419460432525975
1.8910315171919534	0.12806670156851443
1.8920315338588978	0.1360091733513027
1.8930315505258422	0.09515393927825916
1.8940315671927868	0.0947335574835935
1.8950315838597311	0.08021773705878334
1.8960316005266755	0.06277576062165753
1.8970316171936201	0.10320538899055642
1.8980316338605645	0.0994167961109719
1.8990316505275089	0.12406830312083152
1.9000316671944535	0.0790014001081197
1.9010316838613979	0.06915004639058979
1.9020317005283423	0.04573278326109159
1.9030317171952869	0.1375184354150079
1.9040317338622312	0.04179213930150072
1.9050317505291756	0.11176034609841007
1.90603176719612	0.0319206224759149
1.9070317838630646	0.05467296144595821
1.908031800530009	0.10862768643439036
1.9090318171969534	0.028275987453997974
1.910031833863898	0.06495262450241611
1.9110318505308423	0.09145753379692467
1.9120318671977867	0.11179223515267835
1.9130318838647313	0.048300979455400475
1.9140319005316757	0.11745840889190398
1.91503191719862	0.10087035928627777
1.9160319338655647	0.08516918515763719
1.917031950532509	0.06695282330389914
1.9180319671994535	0.08786393748639511
1.9190319838663978	0.12062880753552929
1.9200320005333424	0.11235482102475171
1.9210320172002868	0.07520831433093947
1.9220320338672312	0.12258722203983584
1.9230320505341758	0.14437349232410096
1.9240320672011202	0.047362989189803084
1.9250320838680646	0.09548877884678485
1.9260321005350092	0.05371613571412483
1.9270321172019536	0.10667806600188419
1.928032133868898	0.05715741605058642
1.9290321505358425	0.060084128412599955
1.930032167202787	0.1214874946135775
1.9310321838697313	0.09933016157336144
1.9320322005366757	0.07102182549176886
1.9330322172036203	0.0466539225602607
1.9340322338705647	0.12809584658029097
1.935032250537509	0.04979870261483359
1.9360322672044536	0.12617988408450506
1.937032283871398	0.09003546511659771
1.9380323005383424	0.11977349263327813
1.939032317205287	0.04995704424500276
1.9400323338722314	0.07502379810627478
1.9410323505391758	0.09424869070628747
1.9420323672061202	0.06127937148000915
1.9430323838730648	0.049392417224763126
1.9440324005400091	0.07073596178862568
1.9450324172069535	0.10996254371446712
1.9460324338738981	0.08524107462361952
1.9470324505408425	0.125357675180797
1.9480324672077869	0.0759862831108577
1.9490324838747315	0.06449743105965532
1.9500325005416759	0.05323351817339948
1.9510325172086203	0.09109588615876284
1.9520325338755649	0.10873552568553371
1.9530325505425092	0.1340518110411761
1.9540325672094536	0.04611473000607512
1.955032583876398	0.05841793880284849
1.9560326005433426	0.04606776218153511
1.957032617210287	0.12788259651335998
1.9580326338772314	0.07270232295310203
1.959032650544176	0.06049046251921372
1.9600326672111203	0.11481304866278769
1.9610326838780647	0.06913182040632165
1.9620327005450093	0.09807886470652041
1.9630327172119537	0.0852588856997438
1.964032733878898	0.07251867753148676
1.9650327505458427	0.0403982982314125
1.966032767212787	0.034732444213007835
1.9670327838797315	0.05282421064583506
1.9680328005466758	0.10407735875020628
1.9690328172136204	0.10978763856503919
1.9700328338805648	0.0880414569161878
1.9710328505475092	0.10868005102512708
1.9720328672144538	0.0938925637246744
1.9730328838813982	0.03469830597716841
1.9740329005483426	0.06073513503483404
1.9750329172152872	0.08450881258208812
1.9760329338822316	0.05209401472658051
1.977032950549176	0.0564107176438422
1.9780329672161205	0.09156853904130953
1.979032983883065	0.09341812550242581
1.9800330005500093	0.056138328543720806
1.9810330172169537	0.05995408810449577
1.9820330338838983	0.081469286525782
1.9830330505508427	0.055231075160264695
1.984033067217787	0.05366153070466837
1.9850330838847317	0.06398681622675896
1.986033100551676	0.06257069102455579
1.9870331172186204	0.07735639910348448
1.988033133885565	0.0676000472419636
1.9890331505525094	0.10537617756824406
1.9900331672194538	0.07191196062986038
1.9910331838863984	0.1261131819346014
1.9920332005533428	0.06356120024324685
1.9930332172202871	0.031007110643390845
1.9940332338872315	0.041563078572902465
1.9950332505541761	0.09209695706594012
1.9960332672211205	0.1379809373261959
1.997033283888065	0.05399292486950178
1.9980333005550095	0.06148679403950232
1.9990333172219539	0.04042200375066754
2.0000333338888985	0.10645513675931322
2.0010333505558426	0.06224826262533755
2.0020333672227872	0.03710668104020655
2.003033383889732	0.04365464769512413
2.004033400556676	0.11743084276055868
2.0050334172236206	0.06892741064108632
2.006033433890565	0.05409139505520913
2.0070334505575094	0.0478777830882794
2.008033467224454	0.07871507347777418
2.0090334838913986	0.08871168367544965
2.0100335005583427	0.11137583117603923
2.0110335172252873	0.048502204362466994
2.0120335338922315	0.1161523058200941
2.013033550559176	0.0635003165658449
2.0140335672261207	0.048745851999210756
2.015033583893065	0.11087854501952514
2.0160336005600095	0.03972835139565445
2.017033617226954	0.04959330501055775
2.0180336338938982	0.08310217124044816
2.019033650560843	0.10529773940292114
2.0200336672277874	0.1069527231233375
2.0210336838947316	0.05625796654860876
2.022033700561676	0.1081218094120874
2.023033717228621	0.03711209675311881
2.024033733895565	0.04429417598629827
2.0250337505625096	0.060942266188618914
2.026033767229454	0.08098930356300323
2.0270337838963983	0.03864183341739863
2.028033800563343	0.09162420854102302
2.0290338172302875	0.09858632287383656
2.0300338338972317	0.1265995771350272
2.0310338505641763	0.075315594454731
2.032033867231121	0.07136006460987591
2.033033883898065	0.055383435711043344
2.0340339005650097	0.1069532350533044
2.0350339172319543	0.03552174027691536
2.0360339338988984	0.08408564807060097
2.037033950565843	0.05250574786057631
2.038033967232787	0.07256248974388281
2.039033983899732	0.084550776443273
2.0400340005666764	0.07823693221452907
2.0410340172336205	0.09050755804073325
2.042034033900565	0.061376589940152854
2.0430340505675098	0.09555245550486484
2.044034067234454	0.0768568597131644
2.0450340839013985	0.11627264439730725
2.046034100568343	0.07634793999160741
2.0470341172352873	0.03157651703422436
2.048034133902232	0.06940464632011686
2.0490341505691765	0.0660700203175192
2.0500341672361206	0.047577928925924926
2.0510341839030652	0.12590246608904243
2.05203420057001	0.11674394178668453
2.053034217236954	0.054193393387236034
2.0540342339038986	0.003040155592808503
2.055034250570843	0.12117319303991161
2.0560342672377874	0.0442014178935561
2.057034283904732	0.047650706438286866
2.0580343005716766	0.08624599371659807
2.0590343172386207	0.09148744842787125
2.0600343339055653	0.08754622155174237
2.0610343505725095	0.08282983982600313
2.062034367239454	0.13407372592547312
2.0630343839063987	0.06081572486799623
2.064034400573343	0.0799865949905029
2.0650344172402875	0.09803180724430315
2.066034433907232	0.0853287135154616
2.0670344505741762	0.05348735890694586
2.068034467241121	0.09019900835504506
2.0690344839080654	0.09804867256986712
2.0700345005750096	0.036395365521708814
2.071034517241954	0.06812958314948556
2.072034533908899	0.06457507739636861
2.073034550575843	0.06008431672134742
2.0740345672427876	0.07901007081065095
2.075034583909732	0.06861289385634413
2.0760346005766763	0.13552863657824007
2.077034617243621	0.10506152852891275
2.0780346339105655	0.04457914072978853
2.0790346505775097	0.11213266248072096
2.0800346672444543	0.08634623597376569
2.081034683911399	0.062089348192573494
2.082034700578343	0.07559595820577343
2.0830347172452877	0.06573890001307979
2.0840347339122323	0.09710647356584193
2.0850347505791764	0.10394641317806354
2.086034767246121	0.07325259932466589
2.087034783913065	0.038281900642455964
2.08803480058001	0.04977619484225435
2.0890348172469544	0.11669028548961301
2.0900348339138985	0.12404218105675534
2.091034850580843	0.1110406074224704
2.0920348672477878	0.11672401896936074
2.093034883914732	0.07824226151974313
2.0940349005816765	0.02491801942958075
2.095034917248621	0.08366146628832688
2.0960349339155653	0.10100997523260895
2.09703495058251	0.11591825285696974
2.0980349672494545	0.10439805380993197
2.0990349839163986	0.0547408326287761
2.1000350005833432	0.0392083215020203
2.101035017250288	0.05134779847485314
2.102035033917232	0.06569475968990444
2.1030350505841766	0.07280486041957056
2.104035067251121	0.05637954139084398
2.1050350839180654	0.09999031225229893
2.10603510058501	0.11863751452390092
2.1070351172519546	0.10862422306157891
2.1080351339188987	0.059442721551548325
2.1090351505858433	0.05410346125610682
2.110035167252788	0.04863133045920164
2.111035183919732	0.037964662285493014
2.1120352005866767	0.06672905919940399
2.113035217253621	0.04723199720341334
2.1140352339205655	0.08760411497652257
2.11503525058751	0.07748631750208351
2.1160352672544542	0.06399213882473652
2.117035283921399	0.1155088094911315
2.1180353005883434	0.12611296518949464
2.1190353172552876	0.09313693544379757
2.120035333922232	0.04138169737382588
2.121035350589177	0.08033934677054523
2.122035367256121	0.04369494521921144
2.1230353839230656	0.075433469277401
2.12403540059001	0.09856460304612552
2.1250354172569543	0.12449775109817497
2.126035433923899	0.04624330576598623
2.1270354505908435	0.08429447977420833
2.1280354672577877	0.06705999052096918
2.1290354839247323	0.1063598471384761
2.130035500591677	0.10645739875341806
2.131035517258621	0.1096499964175738
2.1320355339255657	0.016055356896720892
2.1330355505925103	0.04194696444852164
2.1340355672594544	0.11653935011395503
2.135035583926399	0.03973014164871658
2.136035600593343	0.037165354536553404
2.137035617260288	0.07080101104207163
2.1380356339272324	0.06266728965143617
2.1390356505941766	0.12007420404365843
2.140035667261121	0.049532153107238006
2.1410356839280658	0.03338746151188236
2.14203570059501	0.11534730638739979
2.1430357172619545	0.12455180925992407
2.144035733928899	0.0973240649368465
2.1450357505958433	0.05970130477157286
2.146035767262788	0.10347773122087804
2.1470357839297325	0.0698673222700546
2.1480358005966766	0.0645866543326543
2.1490358172636213	0.1247224825047615
2.150035833930566	0.08245321426769422
2.15103585059751	0.1297680218977948
2.1520358672644546	0.10829173732636722
2.153035883931399	0.07365154843975977
2.1540359005983434	0.09240726378434386
2.155035917265288	0.08175111994039479
2.1560359339322326	0.0316938481082896
2.1570359505991767	0.07274196937353127
2.1580359672661213	0.07082641743299786
2.159035983933066	0.03572794769722677
2.16003600060001	0.08185421752268707
2.1610360172669547	0.10100154667824207
2.162036033933899	0.10928108398309902
2.1630360506008435	0.11346936292912671
2.164036067267788	0.12653201283132626
2.1650360839347322	0.08760361036013174
2.166036100601677	0.0164055514268954
2.1670361172686214	0.09474243759083453
2.1680361339355656	0.08759290794914619
2.16903615060251	0.07829582526831422
2.170036167269455	0.09339362742804676
2.171036183936399	0.07682285849185502
2.1720362006033436	0.13467522810114646
2.173036217270288	0.08509788981473236
2.1740362339372323	0.07033766559492077
2.175036250604177	0.05219986825482659
2.1760362672711215	0.04798001312496836
2.1770362839380657	0.02836561218782601
2.1780363006050103	0.11396671285883099
2.179036317271955	0.07541142773028253
2.180036333938899	0.04250478618554792
2.1810363506058437	0.057179344971547044
2.1820363672727883	0.11445105957476567
2.1830363839397324	0.0793072867407934
2.184036400606677	0.11584443386809365
2.1850364172736216	0.08847094725617954
2.186036433940566	0.07827764968248535
2.1870364506075104	0.07260734960199781
2.1880364672744546	0.09216894992442683
2.189036483941399	0.05537832769148694
2.1900365006083438	0.06959688411819404
2.191036517275288	0.07717546616521924
2.1920365339422325	0.03399677052265865
2.193036550609177	0.05737525706412418
2.1940365672761213	0.1179105993166072
2.195036583943066	0.05113563823732575
2.1960366006100105	0.08195026787397819
2.1970366172769547	0.10007662306540915
2.1980366339438993	0.05276314727129928
2.199036650610844	0.0229189661657282
2.200036667277788	0.09335659916062572
2.2010366839447326	0.11671991061148748
2.2020367006116772	0.07359839962363267
2.2030367172786214	0.08723772807222377
2.204036733945566	0.10652476923344016
2.2050367506125106	0.08145421837241408
2.2060367672794547	0.10924582292077299
2.2070367839463993	0.12910351448090945
2.208036800613344	0.08245847757321786
2.209036817280288	0.07266373457794457
2.2100368339472327	0.03884792492888266
2.211036850614177	0.12697146561393163
2.2120368672811215	0.1291625013832728
2.213036883948066	0.08212311464940936
2.2140369006150102	0.01964306976183145
2.215036917281955	0.09445725992988559
2.2160369339488994	0.0880080412189124
2.2170369506158436	0.08377019470411089
2.218036967282788	0.08441709274144875
2.219036983949733	0.0771947451650347
2.220037000616677	0.05476972152956325
2.2210370172836216	0.029611101668941646
2.222037033950566	0.12842705843460073
2.2230370506175103	0.11957538508222282
2.224037067284455	0.09756869861644947
2.2250370839513995	0.11424192581969608
2.2260371006183437	0.12185190780945733
2.2270371172852883	0.09942269974426766
2.228037133952233	0.06434772101868917
2.229037150619177	0.1149931222954594
2.2300371672861217	0.05910907705287495
2.2310371839530663	0.11652362017377783
2.2320372006200104	0.03196539262828763
2.233037217286955	0.036180644273036695
2.2340372339538996	0.11754669883320971
2.235037250620844	0.06583837568724452
2.2360372672877884	0.026385517927913937
2.2370372839547326	0.12110508366597553
2.238037300621677	0.04224352028671881
2.2390373172886218	0.11184961725699094
2.240037333955566	0.048459092307515585
2.2410373506225105	0.08823547650485006
2.242037367289455	0.0478795414443471
2.2430373839563993	0.11001960396492357
2.244037400623344	0.03739327791970393
2.2450374172902885	0.0623463950380304
2.2460374339572327	0.08676075732961538
2.2470374506241773	0.10820257648110941
2.248037467291122	0.030997894579201483
2.249037483958066	0.05190557898052022
2.2500375006250106	0.06933838037934914
2.2510375172919552	0.024098363706312773
2.2520375339588994	0.12720433182090146
2.253037550625844	0.0620445992710783
2.2540375672927886	0.05060924631636737
2.2550375839597327	0.10980506357959706
2.2560376006266774	0.03692526266696361
2.257037617293622	0.0787841067984546
2.258037633960566	0.05346757941965926
2.2590376506275107	0.09068864225740568
2.2600376672944553	0.08206929259258096
2.2610376839613995	0.046086405308359085
2.262037700628344	0.09202672111795841
2.2630377172952882	0.08000138694603466
2.264037733962233	0.07105471177566261
2.2650377506291774	0.08197567408630335
2.2660377672961216	0.04623760575237383
2.267037783963066	0.05297844377452702
2.268037800630011	0.06352370995969948
2.269037817296955	0.04334933829906828
2.2700378339638996	0.1177519442085768
2.271037850630844	0.11842998254087117
2.2720378672977883	0.03804158544839336
2.273037883964733	0.061308926958756005
2.2740379006316775	0.07453356803691435
2.2750379172986217	0.057053284639570184
2.2760379339655663	0.08071678139536966
2.277037950632511	0.10533914565567307
2.278037967299455	0.08610354012753596
2.2790379839663997	0.06698825492198403
2.2800380006333443	0.10289130964676893
2.2810380173002884	0.08705415212263933
2.282038033967233	0.05507520193804885
2.2830380506341776	0.1218046993540034
2.284038067301122	0.08017257489957741
2.2850380839680664	0.04910250259575269
2.2860381006350106	0.11355754056867066
2.287038117301955	0.06745180392319718
2.2880381339688998	0.09494220136790504
2.289038150635844	0.08556327375444107
2.2900381673027885	0.08299576663193395
2.291038183969733	0.11553920325574342
2.2920382006366773	0.029044784348731315
2.293038217303622	0.11608111961879419
2.2940382339705665	0.09409884668406034
2.2950382506375107	0.056009112863602925
2.2960382673044553	0.03650836433403362
2.2970382839714	0.09053844841128791
2.298038300638344	0.07297850543385927
2.2990383173052886	0.052647898674326524
2.3000383339722332	0.09578303221300906
2.3010383506391774	0.037295076508817915
2.302038367306122	0.10363962952774985
2.3030383839730666	0.10656537661953376
2.3040384006400108	0.11789624842920447
2.3050384173069554	0.10204186634737922
2.3060384339739	0.11281043031863992
2.307038450640844	0.09575433354243884
2.3080384673077887	0.03924321822816079
2.3090384839747333	0.06709806593223597
2.3100385006416775	0.11615559073084186
2.311038517308622	0.09775112002674886
2.3120385339755662	0.08872619500288939
2.313038550642511	0.12584993444882414
2.3140385673094555	0.03946156616096903
2.3150385839763996	0.09592723679175007
2.316038600643344	0.08588967372613594
2.317038617310289	0.0560326999247657
2.318038633977233	0.10612508742637408
2.3190386506441776	0.03734444237722588
2.320038667311122	0.09479240257030404
2.3210386839780663	0.06245946994703063
2.322038700645011	0.07754144891141646
2.3230387173119555	0.12141650499288877
2.3240387339788997	0.09756913802007938
2.3250387506458443	0.089658385604464
2.326038767312789	0.0977938907847011
2.327038783979733	0.06644714151109433
2.3280388006466777	0.09095098319378885
2.3290388173136223	0.07437796870826671
2.3300388339805664	0.11044667499439963
2.331038850647511	0.05649820598505617
2.3320388673144556	0.08904912530828736
2.3330388839814	0.09426994119549094
2.3340389006483444	0.1376534987809906
2.335038917315289	0.04700463693290407
2.336038933982233	0.06910928452049252
2.3370389506491778	0.02540032230818778
2.338038967316122	0.08974934081379651
2.3390389839830665	0.035136027958888094
2.340039000650011	0.0934679994146136
2.3410390173169553	0.02994550632650533
2.3420390339839	0.08568679673171027
2.3430390506508445	0.053564646241127924
2.3440390673177887	0.06644079848191364
2.3450390839847333	0.10791497981186143
2.346039100651678	0.12417140367865784
2.347039117318622	0.05818273703710261
2.3480391339855666	0.03452704986300662
2.3490391506525112	0.109616922653915
2.3500391673194554	0.039646436173006935
2.3510391839864	0.1083139968844349
2.3520392006533446	0.06369567863679221
2.3530392173202888	0.039749544921871265
2.3540392339872334	0.1272681217151825
2.355039250654178	0.06366278927801045
2.356039267321122	0.10124051772003177
2.3570392839880667	0.07273430331914756
2.3580393006550113	0.1388256287804401
2.3590393173219555	0.05756889261935533
2.3600393339889	0.04884226204962796
2.3610393506558442	0.1141754301929907
2.362039367322789	0.04409569242041693
2.3630393839897335	0.09348890001027259
2.3640394006566776	0.058468261261840765
2.365039417323622	0.029562100749824627
2.366039433990567	0.07904762665001197
2.367039450657511	0.07127131038322645
2.3680394673244556	0.08178487609165877
2.3690394839914	0.10383692166977881
2.3700395006583443	0.06137874105563991
2.371039517325289	0.06848144864941752
2.3720395339922336	0.1059096959809094
2.3730395506591777	0.13955931976551508
2.3740395673261223	0.0924975522280872
2.375039583993067	0.05055868762213695
2.376039600660011	0.08237835794453809
2.3770396173269557	0.0982810327658745
2.3780396339939003	0.11190521166426856
2.3790396506608444	0.0470606016401504
2.380039667327789	0.14985415105697808
2.3810396839947336	0.06430550676597313
2.382039700661678	0.06252672819248399
2.3830397173286224	0.04655836744920616
2.384039733995567	0.04389034546291555
2.385039750662511	0.11149873368877611
2.3860397673294558	0.09773574741578044
2.3870397839964	0.04987505245529863
2.3880398006633445	0.05243843560261961
2.389039817330289	0.09732500368640937
2.3900398339972333	0.08586807473795405
2.391039850664178	0.13482870562848054
2.3920398673311225	0.044505015405144066
2.3930398839980667	0.03095332688589053
2.3940399006650113	0.083154681887246
2.395039917331956	0.10442436410505863
2.3960399339989	0.10694803182909177
2.3970399506658446	0.09093781528051217
2.3980399673327892	0.09340690908347833
2.3990399839997334	0.06224458515087419
2.400040000666678	0.0647966265018885
2.4010400173336226	0.05565119152083506
2.4020400340005668	0.053689395794847286
2.4030400506675114	0.0541505333341008
2.404040067334456	0.09126497787871227
2.4050400840014	0.11873060494911303
2.4060401006683447	0.04408082943821086
2.4070401173352893	0.08447757138981898
2.4080401340022335	0.06984621256793375
2.409040150669178	0.08752244731745842
2.4100401673361227	0.12209370097549926
2.411040184003067	0.06485144495353666
2.4120402006700115	0.08594230604131865
2.4130402173369556	0.09224100698079656
2.4140402340039	0.054756775525016135
2.415040250670845	0.11530105467838309
2.416040267337789	0.09128945623266967
2.4170402840047336	0.09631476142865514
2.418040300671678	0.11347260137768987
2.4190403173386223	0.07252773291926627
2.420040334005567	0.09664302542840403
2.4210403506725116	0.06752962320782592
2.4220403673394557	0.11539080553078387
2.4230403840064003	0.0357434442318987
2.424040400673345	0.09916497393073542
2.425040417340289	0.12753117546110784
2.4260404340072337	0.05606699004548783
2.4270404506741783	0.07480403250182265
2.4280404673411224	0.06464426076111393
2.429040484008067	0.10706279530895561
2.4300405006750116	0.05924891836327245
2.431040517341956	0.023505511656063426
2.4320405340089004	0.13076254559996978
2.433040550675845	0.06317067390830275
2.434040567342789	0.10742431941047825
2.4350405840097338	0.1395160407110925
2.436040600676678	0.04882706123925034
2.4370406173436225	0.042311800435619766
2.438040634010567	0.12022874794881953
2.4390406506775113	0.06982820930578948
2.440040667344456	0.1290265132924242
2.4410406840114005	0.10731154794895997
2.4420407006783447	0.05903605677578948
2.4430407173452893	0.0431675014727662
2.444040734012234	0.11186149700293144
2.445040750679178	0.09626602259982808
2.4460407673461226	0.14312233332253807
2.4470407840130672	0.07754351345895977
2.4480408006800114	0.078867066899535
2.449040817346956	0.06527790504822678
2.4500408340139006	0.04531174113504579
2.4510408506808448	0.10938665057520316
2.4520408673477894	0.1249948919692863
2.453040884014734	0.05052898799367267
2.454040900681678	0.07649754001651006
2.4550409173486227	0.11320027435803819
2.4560409340155673	0.051566677461166034
2.4570409506825115	0.11773607109224946
2.458040967349456	0.036254724286365336
2.4590409840164007	0.051202636365492375
2.460041000683345	0.10217312806806053
2.4610410173502895	0.1266438966955626
2.4620410340172336	0.10486994167433894
2.4630410506841782	0.09210856601193637
2.464041067351123	0.10762297361223079
2.465041084018067	0.11875194985549209
2.4660411006850116	0.12282774448535275
2.467041117351956	0.07455804524267716
2.4680411340189004	0.04836299490899432
2.469041150685845	0.06964990964760734
2.4700411673527896	0.06301422934146075
2.4710411840197337	0.09762189166196478
2.4720412006866783	0.09716240462482204
2.473041217353623	0.09757893455554222
2.474041234020567	0.10863618255506347
2.4750412506875117	0.1368012853820674
2.4760412673544563	0.09621663889306542
2.4770412840214004	0.13297195060812322
2.478041300688345	0.07221273976375998
2.4790413173552897	0.07845375694078938
2.480041334022234	0.09317162100508677
2.4810413506891784	0.08546430666277466
2.482041367356123	0.09050955644158937
2.483041384023067	0.12583174886754667
2.484041400690012	0.060209650597179615
2.4850414173569564	0.04372808508320816
2.4860414340239005	0.07014948637086804
2.487041450690845	0.078137876533022
2.4880414673577893	0.1175064085690998
2.489041484024734	0.09830798464420513
2.4900415006916785	0.06779615618582358
2.4910415173586227	0.021475254234984052
2.4920415340255673	0.04505617715567996
2.493041550692512	0.09687252170448822
2.494041567359456	0.05654285060557072
2.4950415840264006	0.0823157924583823
2.4960416006933452	0.12592628148142332
2.4970416173602894	0.12367959966039249
2.498041634027234	0.06591680295905275
2.4990416506941786	0.09322726978507932
2.5000416673611228	0.12373988318840719
2.5010416840280674	0.09695581211493948
2.502041700695012	0.09093321208569559
2.503041717361956	0.07990072059073498
2.5040417340289007	0.11313062588574807
2.5050417506958453	0.08304650123741542
2.5060417673627895	0.0765459924171303
2.507041784029734	0.11677660034417416
2.5080418006966787	0.12991094858793376
2.509041817363623	0.12425182266929725
2.5100418340305675	0.11617694489256211
2.5110418506975116	0.07133206444376768
2.5120418673644562	0.09009419929664478
2.513041884031401	0.09932742057096776
2.514041900698345	0.05282674417997775
2.5150419173652896	0.045373640201782514
2.516041934032234	0.1260969372622514
2.5170419506991784	0.054644362364207624
2.518041967366123	0.07724996714533267
2.5190419840330676	0.051150635661770055
2.5200420007000117	0.09374560662599103
2.5210420173669563	0.0766998587220429
2.522042034033901	0.057861725537083894
2.523042050700845	0.06548025004145312
2.5240420673677897	0.031174471972885864
2.5250420840347343	0.11863842263494317
2.5260421007016785	0.05361213490145621
2.527042117368623	0.07802650558225738
2.5280421340355677	0.09033674377672724
2.529042150702512	0.08183650129822514
2.5300421673694564	0.053330873433014854
2.531042184036401	0.0697759069216885
2.532042200703345	0.06495188594036372
2.53304221737029	0.10854915796258777
2.5340422340372344	0.1402673977217879
2.5350422507041785	0.06742823422310754
2.536042267371123	0.06193925782014851
2.5370422840380673	0.10481386646374305
2.538042300705012	0.05577565172954348
2.5390423173719565	0.09070333324211134
2.5400423340389007	0.07147943572541576
2.5410423507058453	0.06431475030224999
2.54204236737279	0.04644230309604869
2.543042384039734	0.1148713898838297
2.5440424007066786	0.06327519274093123
2.5450424173736232	0.05947071764200966
2.5460424340405674	0.06731933607773705
2.547042450707512	0.06317474083204085
2.5480424673744566	0.0765813649159519
2.5490424840414008	0.11455151552724882
2.5500425007083454	0.07607272007082724
2.55104251737529	0.08308203000951485
2.552042534042234	0.040695753665345995
2.5530425507091787	0.11685882613227987
2.5540425673761233	0.09216536961405677
2.5550425840430675	0.10723249827034888
2.556042600710012	0.050737296754074054
2.5570426173769567	0.08566848964283766
2.558042634043901	0.04315025851078721
2.5590426507108455	0.0819643437397426
2.5600426673777896	0.046361033660614365
2.5610426840447342	0.05819083255481535
2.562042700711679	0.10728348175618328
2.563042717378623	0.08959658914138993
2.5640427340455676	0.11790069980381747
2.565042750712512	0.10737459501426928
2.5660427673794564	0.09831478953959277
2.567042784046401	0.11181326084029894
2.5680428007133456	0.03146904454714847
2.5690428173802897	0.11534727906623607
2.5700428340472343	0.1120703331166235
2.571042850714179	0.11513981874941633
2.572042867381123	0.10288765857286945
2.5730428840480677	0.039339929843243845
2.5740429007150123	0.0934899524097026
2.5750429173819565	0.058822542743468605
2.576042934048901	0.04651294316166939
2.5770429507158457	0.08841220157503878
2.57804296738279	0.055233768731376906
2.5790429840497344	0.06296614348766434
2.580043000716679	0.08183834067908242
2.581043017383623	0.11591043468456644
2.582043034050568	0.05683119809396513
2.5830430507175124	0.023090326853905316
2.5840430673844565	0.0897041224464234
2.585043084051401	0.051516491359861034
2.5860431007183453	0.09561298639431395
2.58704311738529	0.0747359736556026
2.5880431340522345	0.09180880781004828
2.5890431507191787	0.10781642534758362
2.5900431673861233	0.12778592254034324
2.591043184053068	0.07324387769251978
2.592043200720012	0.08161703349906459
2.5930432173869566	0.10138934808888017
2.5940432340539012	0.10671467706278122
2.5950432507208454	0.0319970359116228
2.59604326738779	0.11338193216902648
2.5970432840547346	0.07261733522487498
2.5980433007216788	0.0274763282337969
2.5990433173886234	0.07123870055164465
2.600043334055568	0.0822629887605482
2.601043350722512	0.03535602689893442
2.6020433673894567	0.11481608590128019
2.6030433840564013	0.05164445943180429
2.6040434007233455	0.03175270988434491
2.60504341739029	0.07556453433769056
2.6060434340572347	0.08319562276779931
2.607043450724179	0.06525885922418495
2.6080434673911235	0.025388782467562532
2.609043484058068	0.0542168153815899
2.6100435007250122	0.10611172130035033
2.611043517391957	0.12405236056692477
2.612043534058901	0.07206620349332617
2.6130435507258456	0.124024470725098
2.61404356739279	0.05796658313825436
2.6150435840597344	0.04168966539596861
2.616043600726679	0.07973439225193497
2.6170436173936236	0.1204607516204695
2.6180436340605677	0.08256110297045055
2.6190436507275123	0.1049325413412148
2.620043667394457	0.10724742766010065
2.621043684061401	0.07824934239574897
2.6220437007283457	0.03360798684399242
2.6230437173952903	0.08636858156498214
2.6240437340622345	0.06978106228999863
2.625043750729179	0.060602559571927325
2.6260437673961237	0.06341104882627417
2.627043784063068	0.05363494350363168
2.6280438007300124	0.11356596709566769
2.629043817396957	0.04084981380362848
2.630043834063901	0.025703780158829518
2.631043850730846	0.03375948622148291
2.6320438673977904	0.07100421158074433
2.6330438840647346	0.0502717348529577
2.634043900731679	0.047311700469177674
2.6350439173986233	0.044651735948233656
2.636043934065568	0.1295245412481183
2.6370439507325125	0.10410550697675539
2.6380439673994567	0.09651351825273052
2.6390439840664013	0.040765437522432446
2.640044000733346	0.05819960501485109
2.64104401740029	0.11783682322800629
2.6420440340672346	0.08699519675114975
2.6430440507341793	0.08817421438571925
2.6440440674011234	0.07335626621618298
2.645044084068068	0.0390449175395966
2.6460441007350126	0.11605382631418826
2.6470441174019568	0.0821861636130467
2.6480441340689014	0.08471794257930274
2.649044150735846	0.05076796416026366
2.65004416740279	0.0951478009920428
2.6510441840697347	0.0758056881914527
2.6520442007366793	0.05598797841723014
2.6530442174036235	0.12428557541122663
2.654044234070568	0.0914549052212629
2.6550442507375127	0.07277106281913098
2.656044267404457	0.08702745498402069
2.6570442840714015	0.08128080050382476
2.658044300738346	0.07241095102986059
2.6590443174052902	0.05887734860732035
2.660044334072235	0.1198661198919689
2.661044350739179	0.12100243887554388
2.6620443674061236	0.03800119452969149
2.663044384073068	0.08604768835589452
2.6640444007400124	0.07626877655794043
2.665044417406957	0.06261763593915314
2.6660444340739016	0.05576518080490918
2.6670444507408457	0.027054724455939556
2.6680444674077903	0.0753737805923509
2.669044484074735	0.04945483746335848
2.670044500741679	0.102728063500184
2.6710445174086237	0.06094417079361004
2.6720445340755683	0.03971909614649157
2.6730445507425125	0.05932204172137546
2.674044567409457	0.09897356228988163
2.6750445840764017	0.06611579598827713
2.676044600743346	0.11189479764985008
2.6770446174102904	0.12481166580150145
2.678044634077235	0.045150805083325314
2.679044650744179	0.05424704349029527
2.680044667411124	0.12478070755304085
2.6810446840780684	0.09372426960839475
2.6820447007450126	0.12340581485535893
2.683044717411957	0.06943648345056105
2.6840447340789018	0.058329487318334
2.685044750745846	0.06036839781066425
2.6860447674127905	0.10958959521645899
2.6870447840797347	0.08673246012273184
2.6880448007466793	0.07938772470566148
2.689044817413624	0.04230477632246737
2.690044834080568	0.06184489303012321
2.6910448507475127	0.09962833533486404
2.6920448674144573	0.030827224940279122
2.6930448840814014	0.11487594498111735
2.694044900748346	0.13904178381017637
2.6950449174152906	0.04395694103072769
2.696044934082235	0.05035214693569582
2.6970449507491794	0.029593361973518886
2.698044967416124	0.06820017578187795
2.699044984083068	0.04404368787922531
2.7000450007500127	0.10404081954417012
2.7010450174169574	0.06515034189929803
2.7020450340839015	0.10442163104745707
2.703045050750846	0.0949727565604618
2.7040450674177907	0.03550603053823794
2.705045084084735	0.11564681635463152
2.7060451007516795	0.0721761465482301
2.707045117418624	0.039395591850827
2.7080451340855682	0.12407448439528622
2.709045150752513	0.07125777732285991
2.710045167419457	0.0674556121203517
2.7110451840864016	0.04886497089668288
2.712045200753346	0.0773830541094326
2.7130452174202904	0.13036106566250566
2.714045234087235	0.07936403444906304
2.7150452507541796	0.08090709095156945
2.7160452674211237	0.11269712358154768
2.7170452840880683	0.057848198479571546
2.718045300755013	0.12710880105098665
2.719045317421957	0.07723862118378153
2.7200453340889017	0.09799695422323419
2.7210453507558463	0.06474616871448634
2.7220453674227905	0.0952597448075242
2.723045384089735	0.08083112560776352
2.7240454007566797	0.08676128033258568
2.725045417423624	0.07066803640734734
2.7260454340905684	0.13086032043903056
2.727045450757513	0.10860455166929407
2.728045467424457	0.07018809469466263
2.729045484091402	0.09221310105488004
2.7300455007583464	0.028244291712054722
2.7310455174252906	0.03980626642624241
2.732045534092235	0.04036054959769691
2.7330455507591798	0.06380152787168367
2.734045567426124	0.11843196147785567
2.7350455840930685	0.04229081161545502
2.7360456007600127	0.08074884410101904
2.7370456174269573	0.10363825136939286
2.738045634093902	0.03423819649337312
2.739045650760846	0.09882363239518484
2.7400456674277907	0.11601269184795246
2.7410456840947353	0.08585590316035718
2.7420457007616794	0.09617769856355035
2.743045717428624	0.09997081245886473
2.7440457340955686	0.09164541652197217
2.745045750762513	0.10204050932446888
2.7460457674294574	0.04351698197711772
2.747045784096402	0.11932597102877729
2.748045800763346	0.11786576625296087
2.7490458174302908	0.08277197620082703
2.7500458340972354	0.05588178035725233
2.7510458507641795	0.11427074703165563
2.752045867431124	0.11417451862065853
2.7530458840980687	0.036619202100642775
2.754045900765013	0.07722743302515839
2.7550459174319575	0.044548395853732256
2.756045934098902	0.13422632373282692
2.7570459507658462	0.13572319738243072
2.758045967432791	0.08325097804419669
2.7590459840997354	0.07378593313558603
2.7600460007666796	0.024081380980138168
2.761046017433624	0.09901465437867042
2.7620460341005684	0.0499451268249855
2.763046050767513	0.05642906050094735
2.7640460674344576	0.033597364028289604
2.7650460841014017	0.02859117811181315
2.7660461007683463	0.06620715618160271
2.767046117435291	0.04197446304886088
2.768046134102235	0.07479326890241114
2.7690461507691797	0.07854973350702803
2.7700461674361243	0.10615251061446934
2.7710461841030685	0.06394640192110324
2.772046200770013	0.05891460457956116
2.7730462174369577	0.07402498442618435
2.774046234103902	0.0920852924813482
2.7750462507708464	0.06418705387771066
2.776046267437791	0.11834874219000036
2.777046284104735	0.044913364667896624
2.77804630077168	0.12890426543009104
2.7790463174386244	0.12530270791981826
2.7800463341055686	0.05641825327251661
2.781046350772513	0.10471770933962511
2.7820463674394578	0.12678175004107356
2.783046384106402	0.06693332685967472
2.7840464007733465	0.07133743157709223
2.7850464174402907	0.02017002548943985
2.7860464341072353	0.12362751495400039
2.78704645077418	0.04397773121803704
2.788046467441124	0.05584357213243705
2.7890464841080687	0.12266013873082565
2.7900465007750133	0.08848368789320214
2.7910465174419574	0.050501886999594764
2.792046534108902	0.11215781022744938
2.7930465507758466	0.059517767416167475
2.794046567442791	0.11357524560554454
2.7950465841097354	0.07590928835646918
2.79604660077668	0.06550979198958463
2.797046617443624	0.04128631418187598
2.7980466341105688	0.09966008279802899
2.7990466507775134	0.05587796008080145
2.8000466674444575	0.03316519412544412
2.801046684111402	0.11399592335263964
2.8020467007783467	0.11515177382481868
2.803046717445291	0.09426971956936496
2.8040467341122355	0.06530950462942818
2.80504675077918	0.02721622283238692
2.8060467674461242	0.0757461610974569
2.807046784113069	0.039165595240665124
2.8080468007800135	0.03949110592262586
2.8090468174469576	0.0961689352525736
2.810046834113902	0.12832098080027976
2.8110468507808464	0.12809884523657838
2.812046867447791	0.1222749585724767
2.8130468841147356	0.11148423435344605
2.8140469007816797	0.11449363794081949
2.8150469174486243	0.06252774998898211
2.816046934115569	0.0815487607682889
2.817046950782513	0.06605387864988446
2.8180469674494577	0.09758139735085318
2.8190469841164023	0.04259146715024331
2.8200470007833465	0.03917733979720235
2.821047017450291	0.02197911918873888
2.8220470341172357	0.10774826548307148
2.82304705078418	0.11897025259507671
2.8240470674511244	0.08307392928171888
2.825047084118069	0.09582896677904618
2.826047100785013	0.05223956436290277
2.827047117451958	0.03776511921301071
2.8280471341189024	0.09631360932145513
2.8290471507858466	0.12166172659529002
2.830047167452791	0.05804689825057018
2.8310471841197358	0.09752824601253508
2.83204720078668	0.07908735482432522
2.8330472174536245	0.10492136131599991
2.834047234120569	0.08365138746659015
2.8350472507875133	0.10550719252872556
2.836047267454458	0.12569616741385875
2.837047284121402	0.08319120694693258
2.8380473007883467	0.13503766853677582
2.8390473174552913	0.08016627864867062
2.8400473341222354	0.04211477715917543
2.84104735078918	0.1296944899350098
2.8420473674561246	0.09883545447789388
2.843047384123069	0.05618558850801571
2.8440474007900134	0.08420700218942706
2.845047417456958	0.05622212497376113
2.846047434123902	0.06208716133369303
2.8470474507908468	0.10709269546079012
2.8480474674577914	0.05463456118527767
2.8490474841247355	0.08612886657816625
2.85004750079168	0.056791608368221815
2.8510475174586247	0.0965501071109303
2.852047534125569	0.09278176213759347
2.8530475507925135	0.04869515491873353
2.854047567459458	0.12016344325786235
2.8550475841264022	0.0849162473596793
2.856047600793347	0.10121521807158844
2.8570476174602915	0.13667698951302276
2.8580476341272356	0.04715158426889302
2.85904765079418	0.08326695169436521
2.8600476674611244	0.04767042266059727
2.861047684128069	0.038711420003707885
2.8620477007950136	0.0509380043510401
2.8630477174619577	0.042732169287199126
2.8640477341289023	0.112465963513628
2.865047750795847	0.12300342269870339
2.866047767462791	0.048791147958963124
2.8670477841297357	0.11067305543162162
2.8680478007966803	0.08289320345380327
2.8690478174636245	0.058611154446525565
2.870047834130569	0.10575627009617768
2.8710478507975137	0.09556915717174258
2.872047867464458	0.05027214367985877
2.8730478841314024	0.049008855133084284
2.874047900798347	0.10064822836021868
2.875047917465291	0.07397306163271627
2.876047934132236	0.06130348276533203
2.8770479507991804	0.09045993560683742
2.8780479674661246	0.04155198947671787
2.879047984133069	0.1147860140647913
2.8800480008000138	0.09121642308448177
2.881048017466958	0.04452870919932868
2.8820480341339025	0.08773835418161699
2.883048050800847	0.023218897474365133
2.8840480674677913	0.07864834666080392
2.885048084134736	0.0636878838808831
2.88604810080168	0.07339951612824315
2.8870481174686247	0.11212695351989783
2.8880481341355693	0.112805092048447
2.8890481508025134	0.038004524339781486
2.890048167469458	0.05804649131234293
2.8910481841364026	0.047947031850035494
2.892048200803347	0.07701522358920028
2.8930482174702914	0.07250344143323705
2.894048234137236	0.10243280275211179
2.89504825080418	0.060304718762917
2.8960482674711248	0.08929659274324755
2.8970482841380694	0.09404438042982338
2.8980483008050135	0.007082614626351107
2.899048317471958	0.11436334208144272
2.9000483341389027	0.07209532815527683
2.901048350805847	0.08298968847394841
2.9020483674727915	0.09379204798954525
2.903048384139736	0.130006007139173
2.9040484008066803	0.031082347546744844
2.905048417473625	0.053156242304993
2.9060484341405695	0.0779220286190754
2.9070484508075136	0.09385984822451805
2.908048467474458	0.06500928969562805
2.909048484141403	0.02123693367212958
2.910048500808347	0.092864432964644
2.9110485174752916	0.1217458658532534
2.9120485341422357	0.0796956061768099
2.9130485508091803	0.07067282034897919
2.914048567476125	0.050352498550844345
2.915048584143069	0.0378474911053167
2.9160486008100137	0.09626853182760414
2.9170486174769583	0.07199672568088196
2.9180486341439025	0.03998774584712795
2.919048650810847	0.09662993686497576
2.9200486674777917	0.040980971672457185
2.921048684144736	0.0830606136584962
2.9220487008116804	0.05828095634661816
2.923048717478625	0.10540963101101794
2.924048734145569	0.048826561702093166
2.925048750812514	0.11978422181171847
2.9260487674794584	0.10493628057117294
2.9270487841464026	0.07298953062621584
2.928048800813347	0.08053821964531677
2.9290488174802918	0.11558295695282446
2.930048834147236	0.08137807378526321
2.9310488508141805	0.12383041149646824
2.932048867481125	0.11502742640595548
2.9330488841480693	0.12831765206721546
2.934048900815014	0.03833421026239699
2.935048917481958	0.09717327624225575
2.9360489341489027	0.09628347231163875
2.9370489508158473	0.07356750864967321
2.9380489674827914	0.07495171169526128
2.939048984149736	0.036938083516996886
2.9400490008166806	0.1317909618823547
2.941049017483625	0.08268164845903153
2.9420490341505694	0.05801832327776241
2.943049050817514	0.04760253659420942
2.944049067484458	0.09050115965166013
2.9450490841514028	0.08216318207071896
2.9460491008183474	0.08280154747510467
2.9470491174852915	0.10178190083596536
2.948049134152236	0.08775407311848232
2.9490491508191807	0.06281041557145506
2.950049167486125	0.09551992036393046
2.9510491841530695	0.03549875188784217
2.952049200820014	0.08751360751650288
2.9530492174869583	0.11148952691963471
2.954049234153903	0.05274624338390019
2.9550492508208475	0.03379033146053473
2.9560492674877916	0.02994017591541178
2.9570492841547362	0.10828227617962748
2.958049300821681	0.11020935513930039
2.959049317488625	0.10586660686529341
2.9600493341555696	0.05767094748778404
2.9610493508225137	0.09183001069344075
2.9620493674894584	0.0731902748725791
2.963049384156403	0.08801695290831726
2.964049400823347	0.09879909272792031
2.9650494174902917	0.10782099111751581
2.9660494341572363	0.05643280265754131
2.9670494508241805	0.04122385710264102
2.968049467491125	0.032262867004911176
2.9690494841580697	0.048709259157667446
2.970049500825014	0.07856992469345357
2.9710495174919584	0.08692622131464958
2.972049534158903	0.10949614169203299
2.973049550825847	0.0662660456259974
2.974049567492792	0.05684172912700919
2.9750495841597364	0.12737071988777096
2.9760496008266806	0.09790748954040292
2.977049617493625	0.04955105995450407
2.97804963416057	0.022525806456562956
2.979049650827514	0.09719433799998023
2.9800496674944585	0.1179744658479654
2.981049684161403	0.06654641937158251
2.9820497008283473	0.05217972872135466
2.983049717495292	0.12102812004704973
2.9840497341622365	0.06479813703394384
2.9850497508291807	0.05332924491914453
2.9860497674961253	0.029229032700443025
2.9870497841630694	0.0438465325813663
2.988049800830014	0.03096024910776507
2.9890498174969586	0.07467827099152471
2.990049834163903	0.12029215590670822
2.9910498508308474	0.12409248896161128
2.992049867497792	0.06348909677442832
2.993049884164736	0.05930200012996787
2.9940499008316808	0.13716774720165825
2.9950499174986254	0.07606960022363995
2.9960499341655695	0.06762530358881912
2.997049950832514	0.024353903471341715
2.9980499674994587	0.07509760018968817
2.999049984166403	0.0609130947663961
3.0000500008333475	0.046286066264422505
3.001050017500292	0.07612252703581553
3.0020500341672363	0.07130783461862376
3.003050050834181	0.08076472117775167
3.0040500675011255	0.059715458427843635
3.0050500841680696	0.07420624545939021
3.0060501008350142	0.06065098370978915
3.007050117501959	0.053516442174326745
3.008050134168903	0.038583962358011405
3.0090501508358476	0.028810350120346846
3.0100501675027918	0.03948214028721984
3.0110501841697364	0.10900457903604419
3.012050200836681	0.1196191010830834
3.013050217503625	0.05975081017036904
