Time	Amplitude
0.0	0.048535990083116445
0.0010000166669444492	0.06127450199098434
0.0020000333338888983	0.06797125940593815
0.0030000500008333475	0.07803722218433447
0.004000066667777797	0.05294108126516946
0.005000083334722245	0.1047478846033216
0.006000100001666695	0.06309969010019749
0.0070001166686111446	0.09577248576583211
0.008000133335555593	0.0631441081806599
0.009000150002500042	0.07585861188628687
0.01000016666944449	0.0775664585225643
0.011000183336388941	0.06402496348727098
0.01200020000333339	0.06565090909193175
0.013000216670277839	0.0382017785553747
0.014000233337222289	0.033707675426781894
0.015000250004166738	0.11382606423135369
0.016000266671111187	0.05486307322869569
0.017000283338055637	0.031171038244320645
0.018000300005000084	0.06757332209736464
0.019000316671944534	0.0934473431198097
0.02000033333888898	0.12187351240491859
0.021000350005833432	0.1553930785933179
0.022000366672777882	0.058571921918433106
0.02300038333972233	0.13731496283441152
0.02400040000666678	0.017374759987528438
0.02500041667361123	0.10756451015450219
0.026000433340555677	0.07843070996044316
0.027000450007500128	0.0477150176557294
0.028000466674444578	0.09755596581130516
0.029000483341389025	0.09493264679887418
0.030000500008333476	0.056156492507014655
0.031000516675277923	0.09973718990257084
0.03200053334222237	0.13697746613146855
0.033000550009166824	0.12542260640091552
0.034000566676111274	0.0935001237658565
0.03500058334305572	0.07752442630645008
0.03600060001000017	0.03522779587214856
0.03700061667694462	0.05179086407106327
0.03800063334388907	0.11035097745311832
0.03900065001083352	0.12913100098666885
0.04000066667777796	0.10421190553326592
0.04100068334472241	0.07823679150639855
0.042000700011666864	0.05149406783910329
0.043000716678611314	0.029971478994392606
0.044000733345555765	0.06696489732478202
0.045000750012500215	0.026145917928109205
0.04600076667944466	0.12817359007794873
0.04700078334638911	0.053521307001853397
0.04800080001333356	0.08600090150856401
0.04900081668027801	0.07495623813564821
0.05000083334722246	0.05698132886200237
0.051000850014166904	0.0641063908157835
0.052000866681111355	0.08438432095957105
0.053000883348055805	0.033118591962329066
0.054000900015000255	0.09165709222535373
0.055000916681944706	0.0783351313922885
0.056000933348889156	0.078441874700777
0.0570009500158336	0.043599706968688534
0.05800096668277805	0.06557914423452717
0.0590009833497225	0.04671798383480315
0.06000100001666695	0.047700092018083756
0.0610010166836114	0.10092913705187626
0.062001033350555845	0.0932528492507612
0.0630010500175003	0.12998214982670875
0.06400106668444475	0.04676036475577832
0.0650010833513892	0.05624614154718648
0.06600110001833365	0.07743798541902493
0.0670011166852781	0.09074192828072683
0.06800113335222255	0.1275241317704212
0.069001150019167	0.10600307208087495
0.07000116668611144	0.12553691914049211
0.07100118335305589	0.0530307485848754
0.07200120002000034	0.025175640004361472
0.07300121668694479	0.08967301965048555
0.07400123335388924	0.10366673721555086
0.07500125002083369	0.042157120978036165
0.07600126668777814	0.10106281790995968
0.07700128335472259	0.07253834531697287
0.07800130002166704	0.1259841900949763
0.07900131668861149	0.12472499902675703
0.08000133335555593	0.0707398927188966
0.08100135002250038	0.0563292817760412
0.08200136668944483	0.1321629171148532
0.08300138335638928	0.05609576060014968
0.08400140002333373	0.12469243549937264
0.08500141669027818	0.03043398395269839
0.08600143335722263	0.046104530592640525
0.08700145002416708	0.126977057614229
0.08800146669111153	0.08335215987847089
0.08900148335805598	0.10927794152905512
0.09000150002500043	0.059157722232542745
0.09100151669194487	0.08860575181064889
0.09200153335888932	0.10337673455156933
0.09300155002583377	0.132537922125026
0.09400156669277822	0.08318254742175554
0.09500158335972267	0.09382025294937635
0.09600160002666712	0.05593201904422799
0.09700161669361157	0.11935436821095127
0.09800163336055602	0.04249710544535714
0.09900165002750047	0.09397899908388395
0.10000166669444492	0.10766761019475357
0.10100168336138937	0.14098480317261594
0.10200170002833381	0.034022851757862495
0.10300171669527826	0.09406183812081223
0.10400173336222271	0.04161598033750081
0.10500175002916716	0.106870954957135
0.10600176669611161	0.050922500516762656
0.10700178336305606	0.087799089115687
0.10800180003000051	0.06331846797003525
0.10900181669694496	0.03816384327987889
0.11000183336388941	0.11099897545614663
0.11100185003083386	0.05639632565729241
0.11200186669777831	0.04214233048092531
0.11300188336472275	0.08334265750030881
0.1140019000316672	0.049702518606968296
0.11500191669861165	0.10085895728209174
0.1160019333655561	0.12548764392479528
0.11700195003250055	0.12725485396364225
0.118001966699445	0.04020718724674325
0.11900198336638945	0.09654021295234418
0.1200020000333339	0.09234664510838599
0.12100201670027835	0.042148594187559445
0.1220020333672228	0.10369627729548074
0.12300205003416724	0.0658992488298593
0.12400206670111169	0.05860027889785401
0.12500208336805615	0.07020946846059993
0.1260021000350006	0.08992233866080054
0.12700211670194506	0.06108615088198885
0.1280021333688895	0.11973893162857382
0.12900215003583393	0.08820624267822728
0.1300021667027784	0.042080868821214826
0.13100218336972283	0.13162609217005627
0.1320022000366673	0.05036563407571476
0.13300221670361173	0.10710978519928568
0.1340022333705562	0.06604893244949994
0.13500225003750063	0.11836358721396906
0.1360022667044451	0.0932485246394115
0.13700228337138953	0.07631455112385625
0.138002300038334	0.06568897769627026
0.13900231670527843	0.04425731519299884
0.14000233337222287	0.06802578743328144
0.14100235003916733	0.09984777854097873
0.14200236670611177	0.08277892642215427
0.14300238337305624	0.06280276671002279
0.14400240004000067	0.07772846377374847
0.14500241670694514	0.028694256185828496
0.14600243337388957	0.12362049165096776
0.14700245004083404	0.10543789183179038
0.14800246670777847	0.11418823700120125
0.14900248337472294	0.09962961759544954
0.15000250004166737	0.0499219845357965
0.1510025167086118	0.10199617033221609
0.15200253337555628	0.07695728193230782
0.1530025500425007	0.09848459431352839
0.15400256670944518	0.09558777258794234
0.1550025833763896	0.08308078692282139
0.15600260004333408	0.048162428280652425
0.15700261671027851	0.06851730019772759
0.15800263337722298	0.07193634553611647
0.15900265004416742	0.09953083171546263
0.16000266671111185	0.05760051230820957
0.16100268337805632	0.0639717840543445
0.16200270004500075	0.07792477561062852
0.16300271671194522	0.13189243732634415
0.16400273337888965	0.04779107762798075
0.16500275004583412	0.061226250163789485
0.16600276671277855	0.09868336577868807
0.16700278337972302	0.06220882736679491
0.16800280004666746	0.11627967382334232
0.16900281671361192	0.03259182934436455
0.17000283338055636	0.06145842022740614
0.1710028500475008	0.1172484461696453
0.17200286671444526	0.0922924970264707
0.1730028833813897	0.04489139790012527
0.17400290004833416	0.06606512872526074
0.1750029167152786	0.06222945327505939
0.17600293338222306	0.04654989979561252
0.1770029500491675	0.11535870307910003
0.17800296671611196	0.04181731795604007
0.1790029833830564	0.06154240232088395
0.18000300005000086	0.0272234193892694
0.1810030167169453	0.08014966362377263
0.18200303338388973	0.05212863921483864
0.1830030500508342	0.07104905292029437
0.18400306671777863	0.0761318917176033
0.1850030833847231	0.09987410351584791
0.18600310005166754	0.07336673764356162
0.187003116718612	0.06233019706073355
0.18800313338555644	0.09199848203141615
0.1890031500525009	0.08064730405855892
0.19000316671944534	0.1149583893896352
0.1910031833863898	0.0566416043815513
0.19200320005333424	0.0816084701540098
0.19300321672027868	0.03335812699514013
0.19400323338722314	0.06451058744934612
0.19500325005416758	0.060939342238235876
0.19600326672111204	0.07042220168119406
0.19700328338805648	0.08702578468793892
0.19800330005500094	0.10997934552397982
0.19900331672194538	0.015394505935221696
0.20000333338888984	0.08510186669444592
0.20100335005583428	0.0753077038576
0.20200336672277874	0.10800864016831206
0.20300338338972318	0.08107665913947605
0.20400340005666762	0.12236654095212224
0.20500341672361208	0.06856262040755441
0.20600343339055652	0.04790980985769379
0.20700345005750098	0.054926592232200575
0.20800346672444542	0.052966820647916725
0.20900348339138988	0.06610331012473014
0.21000350005833432	0.14092282320926577
0.21100351672527878	0.05202796191038566
0.21200353339222322	0.09211368515776654
0.21300355005916768	0.10622584759328225
0.21400356672611212	0.04596078252741097
0.21500358339305656	0.06904440707936003
0.21600360006000102	0.12496506804951547
0.21700361672694546	0.08033495680723482
0.21800363339388992	0.12156704351733735
0.21900365006083436	0.11108147327205621
0.22000366672777882	0.09337193183117148
0.22100368339472326	0.02949300217818613
0.22200370006166772	0.02531090540160453
0.22300371672861216	0.08456744683241786
0.22400373339555663	0.07393953464712388
0.22500375006250106	0.07468663380668994
0.2260037667294455	0.0669531965580489
0.22700378339638996	0.08007409268151881
0.2280038000633344	0.05043478008748247
0.22900381673027886	0.12368149919902557
0.2300038333972233	0.09882689760189273
0.23100385006416777	0.07814367941912502
0.2320038667311122	0.10247258186802961
0.23300388339805667	0.11921802958825531
0.2340039000650011	0.03928988881701744
0.23500391673194554	0.03492853190422863
0.23600393339889	0.12437986436857301
0.23700395006583444	0.04058905533619549
0.2380039667327789	0.0546433102781236
0.23900398339972334	0.11452202346374267
0.2400040000666678	0.10185074072873583
0.24100401673361224	0.11010643384470534
0.2420040334005567	0.045781155864340506
0.24300405006750114	0.1212300474875404
0.2440040667344456	0.13001867480273008
0.24500408340139004	0.11440083788764425
0.24600410006833448	0.10240738096256664
0.24700411673527894	0.028014458929766735
0.24800413340222338	0.0923510791924332
0.24900415006916785	0.08033168956262415
0.2500041667361123	0.05680398745671126
0.25100418340305675	0.09563321830600191
0.2520042000700012	0.12913253665724259
0.2530042167369456	0.05398615795971116
0.2540042334038901	0.06977470876152954
0.25500425007083455	0.10982816593670766
0.256004266737779	0.04232053869745149
0.2570042834047234	0.027220256460953718
0.25800430007166786	0.06763795670002315
0.25900431673861235	0.05516593405917725
0.2600043334055568	0.06278534271127773
0.2610043500725012	0.07317449455278675
0.26200436673944566	0.0933823881351325
0.26300438340639015	0.07255383728816733
0.2640044000733346	0.032475855842043114
0.265004416740279	0.07778470634761024
0.26600443340722346	0.0720589287317955
0.2670044500741679	0.0402390455517694
0.2680044667411124	0.09641528095818562
0.2690044834080568	0.12267724545156834
0.27000450007500126	0.07688424403798946
0.2710045167419457	0.08919972923224141
0.2720045334088902	0.04724809414762681
0.27300455007583463	0.061524787908737444
0.27400456674277907	0.09706071443752465
0.2750045834097235	0.10165390623747259
0.276004600076668	0.07816723765682751
0.27700461674361243	0.13573265024431938
0.27800463341055687	0.10827787664645866
0.2790046500775013	0.04487169623924183
0.28000466674444574	0.12345563645644783
0.28100468341139023	0.0894545231692306
0.28200470007833467	0.05427162769063106
0.2830047167452791	0.12097090077601369
0.28400473341222354	0.030732684185713538
0.28500475007916803	0.08006792230140843
0.28600476674611247	0.02126077920951122
0.2870047834130569	0.0900049599887223
0.28800480008000134	0.08625784735293834
0.2890048167469458	0.0658359454597478
0.2900048334138903	0.056388860546643785
0.2910048500808347	0.05545033707504718
0.29200486674777915	0.10877633057813263
0.2930048834147236	0.04628020129033361
0.2940049000816681	0.04480212119390533
0.2950049167486125	0.11343885545607592
0.29600493341555695	0.06860065932051244
0.2970049500825014	0.10202529140521581
0.2980049667494459	0.09201175609555926
0.2990049834163903	0.070925408492987
0.30000500008333475	0.018978587915167815
0.3010050167502792	0.08291761455216941
0.3020050334172236	0.06681919018663293
0.3030050500841681	0.11967554838658685
0.30400506675111255	0.019390396500866394
0.305005083418057	0.08095544282895054
0.3060051000850014	0.09113949645193242
0.3070051167519459	0.04621304717859204
0.30800513341889035	0.10147890835077787
0.3090051500858348	0.02464683570151409
0.3100051667527792	0.0920575529312156
0.31100518341972366	0.049757542161756166
0.31200520008666816	0.09056210196177768
0.3130052167536126	0.05903163567305543
0.31400523342055703	0.04180271104980769
0.31500525008750146	0.05770479964909157
0.31600526675444596	0.12481361448053754
0.3170052834213904	0.04909537834421582
0.31800530008833483	0.10956698579422866
0.31900531675527927	0.07596682876923862
0.3200053334222237	0.1129223622125075
0.3210053500891682	0.13244472488124656
0.32200536675611263	0.054272338427721514
0.32300538342305707	0.11320287278071726
0.3240054000900015	0.0945233552488859
0.325005416756946	0.09516718712744653
0.32600543342389043	0.0497407468529868
0.32700545009083487	0.08222208689879971
0.3280054667577793	0.1101421304151356
0.3290054834247238	0.0838429044782415
0.33000550009166824	0.1244591492180821
0.3310055167586127	0.12880171768955828
0.3320055334255571	0.09540526675323883
0.33300555009250155	0.05172138953004778
0.33400556675944604	0.07034910009197216
0.3350055834263905	0.05744939793966472
0.3360056000933349	0.0883266229338881
0.33700561676027935	0.05051446474742223
0.33800563342722384	0.13052476746262082
0.3390056500941683	0.062398961655591716
0.3400056667611127	0.09740418534078654
0.34100568342805715	0.11705838057058615
0.3420057000950016	0.10275818379895933
0.3430057167619461	0.08881873276913546
0.3440057334288905	0.13615227484008016
0.34500575009583495	0.09985269339817378
0.3460057667627794	0.11423351721501282
0.3470057834297239	0.038565373495254344
0.3480058000966683	0.08773492660401828
0.34900581676361275	0.06141718696801812
0.3500058334305572	0.10735630112907911
0.3510058500975017	0.11390037502646708
0.3520058667644461	0.07139287897195819
0.35300588343139055	0.1254933414340505
0.354005900098335	0.10970852217100512
0.35500591676527943	0.05592985255115457
0.3560059334322239	0.049217539097957015
0.35700595009916836	0.03582819020046152
0.3580059667661128	0.07890595969257118
0.35900598343305723	0.06934035827337369
0.3600060001000017	0.13093782231767354
0.36100601676694616	0.1045065560317546
0.3620060334338906	0.09122260846100516
0.36300605010083503	0.07741855099674279
0.36400606676777947	0.14088245009484585
0.36500608343472396	0.02758181492928432
0.3660061001016684	0.11669897529832805
0.36700611676861283	0.11196862029060975
0.36800613343555727	0.0359375859785934
0.36900615010250176	0.05248921881393851
0.3700061667694462	0.047422617196311474
0.37100618343639064	0.07243168849583498
0.37200620010333507	0.07100099627306844
0.37300621677027956	0.049084410142120165
0.374006233437224	0.10534717807212195
0.37500625010416844	0.0617581079827948
0.3760062667711129	0.093912218536975
0.3770062834380573	0.06467119248967824
0.3780063001050018	0.07104602312051923
0.37900631677194624	0.039951392328441235
0.3800063334388907	0.03989543409802332
0.3810063501058351	0.1273984358351707
0.3820063667727796	0.1321220580913658
0.38300638343972404	0.10981232422504057
0.3840064001066685	0.05164376673275598
0.3850064167736129	0.0923390009555731
0.38600643344055735	0.11417392159831959
0.38700645010750184	0.09867395560166294
0.3880064667744463	0.08786442711679475
0.3890064834413907	0.07676772403174234
0.39000650010833515	0.0485281227819637
0.39100651677527964	0.08910920575933272
0.3920065334422241	0.05335303240932668
0.3930065501091685	0.09336650497058233
0.39400656677611295	0.09769960554009087
0.3950065834430574	0.04701457037562391
0.3960066001100019	0.10964745869383302
0.3970066167769463	0.0687531971757103
0.39800663344389076	0.06616761266158808
0.3990066501108352	0.0994003283337767
0.4000066667777797	0.088350326087625
0.4010066834447241	0.09335917308905464
0.40200670011166856	0.09279353586597901
0.403006716778613	0.05007450330936052
0.4040067334455575	0.05545788601107898
0.4050067501125019	0.08070370268173317
0.40600676677944636	0.07695128944895198
0.4070067834463908	0.12265753221043865
0.40800680011333523	0.04326673018221357
0.4090068167802797	0.04935302757128316
0.41000683344722416	0.11070132045618179
0.4110068501141686	0.1214077502128968
0.41200686678111303	0.06613120664754818
0.4130068834480575	0.08558659929171365
0.41400690011500196	0.0725335479007705
0.4150069167819464	0.048471556822566514
0.41600693344889084	0.08541336615341708
0.4170069501158353	0.04311637815101113
0.41800696678277977	0.05139127280083176
0.4190069834497242	0.04682508748903602
0.42000700011666864	0.041367145628422274
0.4210070167836131	0.08360338218960645
0.42200703345055757	0.11962365987540761
0.423007050117502	0.0367853525934161
0.42400706678444644	0.08510314246789956
0.4250070834513909	0.0411795041535578
0.42600710011833537	0.07098065271370625
0.4270071167852798	0.03237238046514757
0.42800713345222424	0.1461614562143833
0.4290071501191687	0.09842081550888587
0.4300071667861131	0.10405643228228748
0.4310071834530576	0.10486301457900354
0.43200720012000204	0.08675871350142988
0.4330072167869465	0.06314768167735615
0.4340072334538909	0.08468952251568995
0.4350072501208354	0.06334903477090117
0.43600726678777985	0.08139806144894847
0.4370072834547243	0.11935372453669768
0.4380073001216687	0.11160162047249242
0.43900731678861316	0.04325238459989118
0.44000733345555765	0.059444740824984514
0.4410073501225021	0.04159781989088997
0.4420073667894465	0.08912791882738536
0.44300738345639096	0.11762936717367871
0.44400740012333545	0.06635549757550124
0.4450074167902799	0.13641893417040143
0.4460074334572243	0.039050226611792666
0.44700745012416876	0.06188904225275282
0.44800746679111325	0.12536954734914108
0.4490074834580577	0.04422687336300714
0.4500075001250021	0.09484720339238512
0.45100751679194656	0.08516321723612486
0.452007533458891	0.02423762008902345
0.4530075501258355	0.039730196237078276
0.4540075667927799	0.07417147124398563
0.45500758345972436	0.12946327963361431
0.4560076001266688	0.08665630618275547
0.4570076167936133	0.10627105237465954
0.45800763346055773	0.09407437599800368
0.45900765012750216	0.05431335056683194
0.4600076667944466	0.048713291492309435
0.46100768346139104	0.10925345037270143
0.46200770012833553	0.029991642560852096
0.46300771679527997	0.07017343245701516
0.4640077334622244	0.12261873672278968
0.46500775012916884	0.11268859765673184
0.46600776679611333	0.1429515824172668
0.46700778346305777	0.06035807491470595
0.4680078001300022	0.038250542652114576
0.46900781679694664	0.05117209708383353
0.4700078334638911	0.12041911422949735
0.47100785013083557	0.019274462789915327
0.47200786679778	0.10841860532358852
0.47300788346472444	0.12174651929358843
0.4740079001316689	0.08015043519228707
0.47500791679861337	0.13306447006326005
0.4760079334655578	0.10312323845696338
0.47700795013250225	0.07651411278933622
0.4780079667994467	0.08248102252478162
0.4790079834663912	0.12621570813060481
0.4800080001333356	0.0777837136052426
0.48100801680028005	0.0414427532531937
0.4820080334672245	0.04166164013154075
0.4830080501341689	0.025769052469944664
0.4840080668011134	0.07529259170982286
0.48500808346805785	0.13125665134231834
0.4860081001350023	0.11532545122648463
0.4870081168019467	0.12472699427131463
0.4880081334688912	0.1127079448684285
0.48900815013583565	0.08534209829417877
0.4900081668027801	0.11130864189326975
0.4910081834697245	0.12365823840871897
0.49200820013666896	0.09352037157750316
0.49300821680361345	0.09341475018888787
0.4940082334705579	0.06832072743450587
0.4950082501375023	0.05908069834865337
0.49600826680444676	0.09940891369319033
0.49700828347139125	0.07068106468469122
0.4980083001383357	0.06188212623206546
0.4990083168052801	0.09333286414026933
0.5000083334722246	0.05504960524795598
0.501008350139169	0.06582202239056423
0.5020083668061135	0.07251265212562144
0.5030083834730579	0.03721212529710348
0.5040084001400024	0.11148686873043502
0.5050084168069469	0.06954579029123448
0.5060084334738912	0.06305613828937616
0.5070084501408357	0.047983882163374
0.5080084668077802	0.06530712756290011
0.5090084834747246	0.058113031276213
0.5100085001416691	0.10201833000499343
0.5110085168086135	0.1049723477168968
0.512008533475558	0.10259604695420493
0.5130085501425025	0.047038920492119225
0.5140085668094468	0.10125287700908359
0.5150085834763913	0.08205889528652291
0.5160086001433357	0.08002209668294141
0.5170086168102802	0.07081116801568109
0.5180086334772247	0.13522049712329504
0.5190086501441691	0.06453169059791652
0.5200086668111136	0.11098263508949556
0.5210086834780581	0.023653818334852063
0.5220087001450024	0.10016275193733107
0.5230087168119469	0.09556937604240394
0.5240087334788913	0.07947276259328895
0.5250087501458358	0.08430273507393897
0.5260087668127803	0.07305449201329868
0.5270087834797247	0.047055849425475624
0.5280088001466692	0.08621609118226638
0.5290088168136136	0.08003945341903947
0.530008833480558	0.04454114862055156
0.5310088501475025	0.11649360219173847
0.5320088668144469	0.09815069795528801
0.5330088834813914	0.11567495265108282
0.5340089001483358	0.030695538833989282
0.5350089168152803	0.07825045675714871
0.5360089334822248	0.06935844925964706
0.5370089501491692	0.07140020913231646
0.5380089668161137	0.03569449028486006
0.5390089834830581	0.10096864955436431
0.5400090001500025	0.10574081163228906
0.541009016816947	0.04518319450261326
0.5420090334838914	0.08859613027968746
0.5430090501508359	0.1040529712333686
0.5440090668177804	0.11467023629177865
0.5450090834847248	0.029300694406120435
0.5460091001516693	0.047989572916187245
0.5470091168186136	0.07760078533181032
0.5480091334855581	0.14391440658980592
0.5490091501525026	0.08571406831348119
0.550009166819447	0.06490968425847575
0.5510091834863915	0.059212025226727534
0.552009200153336	0.1317555674019812
0.5530092168202804	0.10545925546681009
0.5540092334872249	0.08779358937813028
0.5550092501541692	0.09639986616374878
0.5560092668211137	0.06571667429805637
0.5570092834880582	0.082183790198017
0.5580093001550026	0.0819216587594369
0.5590093168219471	0.06979219332245531
0.5600093334888915	0.0832057755997416
0.561009350155836	0.03166973141045987
0.5620093668227805	0.08070328943106628
0.5630093834897248	0.07825255913163401
0.5640094001566693	0.08025242401752453
0.5650094168236138	0.06878939916199613
0.5660094334905582	0.10238970266572117
0.5670094501575027	0.11189383950702245
0.5680094668244471	0.03651433639811189
0.5690094834913916	0.05078810117210804
0.5700095001583361	0.09590598868876751
0.5710095168252804	0.06984772480773818
0.5720095334922249	0.09434016485055824
0.5730095501591693	0.12373603225074113
0.5740095668261138	0.05259401237076337
0.5750095834930583	0.09151373179698952
0.5760096001600027	0.08851967644491543
0.5770096168269472	0.12634012506458514
0.5780096334938916	0.09734422572127495
0.579009650160836	0.05488704106361512
0.5800096668277805	0.06397528051719607
0.5810096834947249	0.05637207148581941
0.5820097001616694	0.10462711577939991
0.5830097168286139	0.14482860766410843
0.5840097334955583	0.0716294716530841
0.5850097501625028	0.06235519225635162
0.5860097668294472	0.12093552988680448
0.5870097834963917	0.0715782382579785
0.5880098001633361	0.1304422826499376
0.5890098168302805	0.04447632679203403
0.590009833497225	0.09703501186762953
0.5910098501641694	0.04446268978040176
0.5920098668311139	0.14005514247997353
0.5930098834980584	0.1267703145472028
0.5940099001650028	0.03671996221934061
0.5950099168319473	0.09246021859802382
0.5960099334988918	0.050872740115412304
0.5970099501658361	0.08231496776671308
0.5980099668327806	0.09014396832436239
0.599009983499725	0.09645437682541369
0.6000100001666695	0.0874545189226487
0.601010016833614	0.08208984345605984
0.6020100335005584	0.04398931912481701
0.6030100501675029	0.09277089572213783
0.6040100668344472	0.0812456859493767
0.6050100835013917	0.1251403353495687
0.6060101001683362	0.1286410555982531
0.6070101168352806	0.05614768293184867
0.6080101335022251	0.04826196919352481
0.6090101501691695	0.07964815576790736
0.610010166836114	0.07615168424899778
0.6110101835030585	0.0362818321155059
0.6120102001700028	0.10079090790200226
0.6130102168369473	0.1386722128691978
0.6140102335038918	0.0965733375538989
0.6150102501708362	0.04868896250572092
0.6160102668377807	0.07386829555366188
0.6170102835047251	0.07815583541599
0.6180103001716696	0.13016838190487892
0.6190103168386141	0.046888633999170086
0.6200103335055585	0.08177753686738351
0.621010350172503	0.07152395805003386
0.6220103668394473	0.0651268322089342
0.6230103835063918	0.07889125092758373
0.6240104001733363	0.030390875253832814
0.6250104168402807	0.11641754879435696
0.6260104335072252	0.060058575054099964
0.6270104501741697	0.05206192212556365
0.6280104668411141	0.08026887980920958
0.6290104835080585	0.07123417534940928
0.6300105001750029	0.02149097699131295
0.6310105168419474	0.12375418828203594
0.6320105335088919	0.0435916941861177
0.6330105501758363	0.07818408077300103
0.6340105668427808	0.04283596049068722
0.6350105835097252	0.05278504493589281
0.6360106001766697	0.12575634940561867
0.6370106168436142	0.060366311518193744
0.6380106335105585	0.11063058798708456
0.639010650177503	0.07367984154735381
0.6400106668444474	0.14464811263738758
0.6410106835113919	0.05379083114586596
0.6420107001783364	0.13841493328203489
0.6430107168452808	0.10931825224997968
0.6440107335122253	0.13275903665599406
0.6450107501791698	0.05259619050027711
0.6460107668461141	0.08497322943541757
0.6470107835130586	0.11960482321593872
0.648010800180003	0.12017696102166747
0.6490108168469475	0.07652579097661097
0.650010833513892	0.06983665728012926
0.6510108501808364	0.05048710652765307
0.6520108668477809	0.042636662949320975
0.6530108835147252	0.05491337841759036
0.6540109001816697	0.0723711799814185
0.6550109168486142	0.027201008751349426
0.6560109335155586	0.03715953099706151
0.6570109501825031	0.06749155853843707
0.6580109668494476	0.09479892118294987
0.659010983516392	0.13095677325474497
0.6600110001833365	0.11828382362973978
0.6610110168502809	0.06787297205172536
0.6620110335172253	0.057313631778132354
0.6630110501841698	0.08351534480475914
0.6640110668511142	0.0289949663558159
0.6650110835180587	0.08366825321244108
0.6660111001850031	0.06570992988556333
0.6670111168519476	0.11371330169417916
0.6680111335188921	0.07746402586837499
0.6690111501858365	0.10415837179505097
0.670011166852781	0.13025775110213272
0.6710111835197254	0.08850835690887059
0.6720112001866698	0.062437321384669224
0.6730112168536143	0.09848256570512283
0.6740112335205587	0.05426656997705601
0.6750112501875032	0.11173814815940676
0.6760112668544477	0.11726037963480311
0.6770112835213921	0.0684729864289977
0.6780113001883366	0.07995711903556334
0.6790113168552809	0.0860448559939566
0.6800113335222254	0.1270103320074759
0.6810113501891699	0.1206724274614668
0.6820113668561143	0.08164891777234337
0.6830113835230588	0.1488596604189595
0.6840114001900032	0.03859865535415973
0.6850114168569477	0.04837269668556322
0.6860114335238922	0.07786049866809411
0.6870114501908365	0.11319446933010333
0.688011466857781	0.048701700763010655
0.6890114835247255	0.06128259058886398
0.6900115001916699	0.1095386616792499
0.6910115168586144	0.06479077047868034
0.6920115335255588	0.09949688163053144
0.6930115501925033	0.07238942606597377
0.6940115668594478	0.03729389137764709
0.6950115835263921	0.0936999634343735
0.6960116001933366	0.07294466660765535
0.697011616860281	0.04980960876503578
0.6980116335272255	0.04860998694206886
0.69901165019417	0.0995619328302061
0.7000116668611144	0.0732941453324862
0.7010116835280589	0.12504832772699023
0.7020117001950034	0.06098394820459802
0.7030117168619477	0.032044507299811315
0.7040117335288922	0.08298659866046337
0.7050117501958366	0.11409103033772502
0.7060117668627811	0.12148681120074471
0.7070117835297256	0.09990601619620516
0.70801180019667	0.07903248048428237
0.7090118168636145	0.057684907444733854
0.7100118335305589	0.11841895057179792
0.7110118501975033	0.07011559725586435
0.7120118668644478	0.021116249318415686
0.7130118835313922	0.13075931404210367
0.7140119001983367	0.08201185817314705
0.7150119168652811	0.08082914948857522
0.7160119335322256	0.07263499182495664
0.7170119501991701	0.06511391563516555
0.7180119668661145	0.11577648535690724
0.719011983533059	0.0602260714592675
0.7200120002000034	0.03616331890216384
0.7210120168669478	0.06835571514821606
0.7220120335338923	0.08419790655986768
0.7230120502008367	0.1177832911005368
0.7240120668677812	0.11653765031244774
0.7250120835347257	0.06417822558305575
0.7260121002016701	0.12383980531168626
0.7270121168686146	0.10888907597280964
0.7280121335355589	0.08163478335168628
0.7290121502025034	0.07366575611590864
0.7300121668694479	0.1296213373485424
0.7310121835363923	0.09291271468696276
0.7320122002033368	0.07736363999736083
0.7330122168702813	0.141935655731795
0.7340122335372257	0.05415116843099587
0.7350122502041702	0.020255122419448005
0.7360122668711145	0.10797662638244586
0.737012283538059	0.11918201257371289
0.7380123002050035	0.039593131028721945
0.7390123168719479	0.10403239069701228
0.7400123335388924	0.039917830909545864
0.7410123502058368	0.10015138361802674
0.7420123668727813	0.11038077616491136
0.7430123835397258	0.10816005740330258
0.7440124002066701	0.08178408684731193
0.7450124168736146	0.05216660867241128
0.7460124335405591	0.1161993642564765
0.7470124502075035	0.10800281177023621
0.748012466874448	0.0692383849224521
0.7490124835413924	0.051977973738169786
0.7500125002083369	0.11113687895348863
0.7510125168752814	0.09336543654303162
0.7520125335422257	0.047205806447964675
0.7530125502091702	0.1209516372914214
0.7540125668761146	0.13987197304724455
0.7550125835430591	0.07575744515601526
0.7560126002100036	0.0967935274513847
0.757012616876948	0.10644420210844559
0.7580126335438925	0.03512104926309205
0.7590126502108369	0.07787514360347877
0.7600126668777814	0.07813643418313188
0.7610126835447258	0.060342496719481456
0.7620127002116702	0.07595093018658303
0.7630127168786147	0.1274384957716078
0.7640127335455592	0.06039114212151517
0.7650127502125036	0.04867206819402622
0.7660127668794481	0.03533032369732772
0.7670127835463925	0.12751774904261468
0.768012800213337	0.12588815692735728
0.7690128168802814	0.029980448270036337
0.7700128335472258	0.1334559087605548
0.7710128502141703	0.05170643599432842
0.7720128668811147	0.04668750318000884
0.7730128835480592	0.0323706000784654
0.7740129002150037	0.08843523635645048
0.7750129168819481	0.03866533164686195
0.7760129335488926	0.045571623133754686
0.777012950215837	0.06701493975095162
0.7780129668827814	0.01666770467310044
0.7790129835497259	0.0500145847600406
0.7800130002166703	0.10023489716008055
0.7810130168836148	0.04811726191408958
0.7820130335505593	0.061545058555641546
0.7830130502175037	0.09540572351198733
0.7840130668844482	0.12872821002615845
0.7850130835513925	0.034968417331336675
0.786013100218337	0.07217289542701827
0.7870131168852815	0.03362231403988102
0.7880131335522259	0.08264712167255872
0.7890131502191704	0.11043200418217897
0.7900131668861148	0.04450202999538402
0.7910131835530593	0.05782720306854156
0.7920132002200038	0.09004237210405094
0.7930132168869481	0.12475773355606107
0.7940132335538926	0.09449942784714531
0.7950132502208371	0.11343703026395105
0.7960132668877815	0.055430178726595586
0.797013283554726	0.07932728826229532
0.7980133002216704	0.09745623318338678
0.7990133168886149	0.10381131973973923
0.8000133335555594	0.10018137572658323
0.8010133502225038	0.07064009451486516
0.8020133668894482	0.04749295489827846
0.8030133835563926	0.06793445619600437
0.8040134002233371	0.041989215803272265
0.8050134168902816	0.08536615470241461
0.806013433557226	0.06049548001189342
0.8070134502241705	0.13129425009813603
0.808013466891115	0.0788755054410116
0.8090134835580594	0.13250981810968454
0.8100135002250038	0.04573421835677003
0.8110135168919482	0.12294086569373756
0.8120135335588927	0.06751786021692463
0.8130135502258372	0.06243575659779069
0.8140135668927816	0.09952461786474812
0.8150135835597261	0.06289691646265128
0.8160136002266705	0.061930697132401805
0.817013616893615	0.07291776617303211
0.8180136335605594	0.06639258917255624
0.8190136502275038	0.13529880354030077
0.8200136668944483	0.03972661066613852
0.8210136835613928	0.09305010149906442
0.8220137002283372	0.04021013178159315
0.8230137168952817	0.13840234790583583
0.8240137335622261	0.07545823146294793
0.8250137502291706	0.08872623308525782
0.826013766896115	0.117981510494648
0.8270137835630594	0.09660214658736466
0.8280138002300039	0.0895752472352083
0.8290138168969483	0.10242001159423501
0.8300138335638928	0.05826637333167209
0.8310138502308373	0.08586110810130004
0.8320138668977817	0.0913946121657264
0.8330138835647262	0.06724387896356272
0.8340139002316705	0.09382343406637315
0.835013916898615	0.08706854041099943
0.8360139335655595	0.055560202693007855
0.8370139502325039	0.12341000041436388
0.8380139668994484	0.13037453509192434
0.8390139835663929	0.12513016085936107
0.8400140002333373	0.10502222185739243
0.8410140169002818	0.03628183280786847
0.8420140335672262	0.03845352837673953
0.8430140502341706	0.04938270232009695
0.8440140669011151	0.050330566675690865
0.8450140835680595	0.08093084163150846
0.846014100235004	0.0767746569953575
0.8470141169019484	0.09571431507874577
0.8480141335688929	0.0781384265229714
0.8490141502358374	0.06542745241913624
0.8500141669027818	0.11695850936294433
0.8510141835697262	0.10274382177052169
0.8520142002366707	0.06496004095640388
0.8530142169036151	0.03427167373365139
0.8540142335705596	0.05641625617225115
0.855014250237504	0.0823956349370683
0.8560142669044485	0.12554794158822372
0.857014283571393	0.0752849612431891
0.8580143002383374	0.1238703397314568
0.8590143169052818	0.10592513530092042
0.8600143335722262	0.08683304339045128
0.8610143502391707	0.05297887001598156
0.8620143669061152	0.06452293781266415
0.8630143835730596	0.12005862955262855
0.8640144002400041	0.07303057468144662
0.8650144169069485	0.09222559158350653
0.866014433573893	0.028427202884312174
0.8670144502408375	0.09900735376313047
0.8680144669077818	0.10130356993981605
0.8690144835747263	0.08646279286013017
0.8700145002416708	0.030709124190112274
0.8710145169086152	0.12938234245540983
0.8720145335755597	0.13065226920300282
0.8730145502425041	0.10414341916617392
0.8740145669094486	0.10307051918308181
0.8750145835763931	0.05943173089479749
0.8760146002433374	0.08236353209039232
0.8770146169102819	0.0912203284598122
0.8780146335772263	0.10149172286765652
0.8790146502441708	0.09981530529833928
0.8800146669111153	0.08774569495683274
0.8810146835780597	0.1425101163248984
0.8820147002450042	0.07878352370924496
0.8830147169119487	0.03576369278148516
0.884014733578893	0.07954399179970988
0.8850147502458375	0.10202798271720485
0.8860147669127819	0.049066860665407254
0.8870147835797264	0.13063209504390522
0.8880148002466709	0.1150035334865719
0.8890148169136153	0.027777082999966278
0.8900148335805598	0.03657354810803251
0.8910148502475042	0.06468707779343216
0.8920148669144486	0.0697203922954345
0.8930148835813931	0.08605087396694731
0.8940149002483375	0.09388925309099244
0.895014916915282	0.04984170603137615
0.8960149335822265	0.11793648470289418
0.8970149502491709	0.09979975349465339
0.8980149669161154	0.07421487590655741
0.8990149835830598	0.06590582805284421
0.9000150002500042	0.12037380055330893
0.9010150169169487	0.10136091355253364
0.9020150335838931	0.11131585485420371
0.9030150502508376	0.11749137350987177
0.904015066917782	0.045571924712796065
0.9050150835847265	0.04802593189612909
0.906015100251671	0.07291693248091441
0.9070151169186154	0.11746721424229217
0.9080151335855599	0.08884336630138216
0.9090151502525042	0.09700112008057717
0.9100151669194487	0.10274244667014493
0.9110151835863932	0.10592676017626754
0.9120152002533376	0.060127331829715816
0.9130152169202821	0.08256142418912167
0.9140152335872266	0.06963211639038062
0.915015250254171	0.1005228286439552
0.9160152669211155	0.03486762498740415
0.9170152835880598	0.11799990151357685
0.9180153002550043	0.03320044907952048
0.9190153169219488	0.1378436557811556
0.9200153335888932	0.08453590998031511
0.9210153502558377	0.12743599702107006
0.9220153669227821	0.08678068543774448
0.9230153835897266	0.08581627560833406
0.9240154002566711	0.13501567302837303
0.9250154169236154	0.09348556920494436
0.9260154335905599	0.12258622159543932
0.9270154502575044	0.0545931008581773
0.9280154669244488	0.05148260457496145
0.9290154835913933	0.08082926281529702
0.9300155002583377	0.03429555085441287
0.9310155169252822	0.0674723087817012
0.9320155335922267	0.0602178595554438
0.933015550259171	0.04660313994880463
0.9340155669261155	0.03240911419500168
0.9350155835930599	0.11072316162452138
0.9360156002600044	0.05769963502466974
0.9370156169269489	0.08555932755459242
0.9380156335938933	0.0713680011086454
0.9390156502608378	0.08778769633045563
0.9400156669277822	0.08883657572306099
0.9410156835947266	0.10468439250567836
0.9420157002616711	0.084845890915841
0.9430157169286155	0.12109284951679421
0.94401573359556	0.09537753149560879
0.9450157502625045	0.07812528056774895
0.9460157669294489	0.08622920164294111
0.9470157835963934	0.06584600012462859
0.9480158002633378	0.09833778356522074
0.9490158169302823	0.07895484988215216
0.9500158335972267	0.03952783085185181
0.9510158502641711	0.05834453153150028
0.9520158669311156	0.06184993161914019
0.95301588359806	0.04025162065068525
0.9540159002650045	0.11276179471592027
0.955015916931949	0.0897096513813025
0.9560159335988934	0.05418392396942959
0.9570159502658379	0.033750092683353376
0.9580159669327823	0.1446170864288981
0.9590159835997267	0.03939164696566097
0.9600160002666712	0.08689911197959903
0.9610160169336156	0.0795117258500658
0.9620160336005601	0.07168650000803922
0.9630160502675046	0.07761232156167332
0.964016066934449	0.13973980269464947
0.9650160836013935	0.036382910367823894
0.9660161002683378	0.06780368709152673
0.9670161169352823	0.05682456254575955
0.9680161336022268	0.04686864964822537
0.9690161502691712	0.09159861861364255
0.9700161669361157	0.0761294305748206
0.9710161836030601	0.04818762156006182
0.9720162002700046	0.02363435406903621
0.9730162169369491	0.03939757291293496
0.9740162336038934	0.07665234229888812
0.9750162502708379	0.1276274733499731
0.9760162669377824	0.07495914695761019
0.9770162836047268	0.05735095260480044
0.9780163002716713	0.13033675325736438
0.9790163169386157	0.1181231380744765
0.9800163336055602	0.12019265663496814
0.9810163502725047	0.09458388334466618
0.982016366939449	0.043701150111321176
0.9830163836063935	0.05780294344109069
0.9840164002733379	0.1053355079184231
0.9850164169402824	0.0332650610922274
0.9860164336072269	0.05153888691685234
0.9870164502741713	0.08026455677373806
0.9880164669411158	0.044355606657830976
0.9890164836080603	0.08115507291098789
0.9900165002750047	0.09179231832190625
0.9910165169419491	0.07099705694361964
0.9920165336088935	0.04046656570889876
0.993016550275838	0.07501580862480359
0.9940165669427825	0.09838888046529193
0.9950165836097269	0.05323462000755061
0.9960166002766714	0.10109454194658239
0.9970166169436158	0.11506194724799125
0.9980166336105603	0.0876761584171091
0.9990166502775047	0.09037224768952706
1.0000166669444492	0.058855900218656276
1.0010166836113936	0.09778212590252917
1.002016700278338	0.12787202211336016
1.0030167169452826	0.043559866700097614
1.004016733612227	0.050898034134169025
1.0050167502791714	0.09891965181682139
1.0060167669461157	0.0519927050417787
1.0070167836130604	0.04890259370827074
1.0080168002800047	0.13689573152961196
1.0090168169469491	0.0803474482459756
1.0100168336138937	0.08281860701264449
1.011016850280838	0.10709267329228
1.0120168669477825	0.03608027531501125
1.013016883614727	0.05236865837008497
1.0140169002816715	0.09577646809027875
1.0150169169486158	0.07589889405853258
1.0160169336155604	0.11128177076270829
1.0170169502825048	0.09174494201432705
1.0180169669494492	0.11767576458663005
1.0190169836163936	0.06980181414375862
1.0200170002833382	0.04944702885181934
1.0210170169502826	0.10357290859725463
1.022017033617227	0.032012011647719656
1.0230170502841716	0.05930271029464239
1.024017066951116	0.08200277815017873
1.0250170836180603	0.04157373908771197
1.026017100285005	0.10133712257745467
1.0270171169519493	0.09569322973677105
1.0280171336188937	0.045577871300225746
1.0290171502858383	0.11543105659102698
1.0300171669527827	0.08099631356320067
1.031017183619727	0.1322723687849808
1.0320172002866714	0.06728526483901284
1.033017216953616	0.05904183232041964
1.0340172336205604	0.07751491964819435
1.0350172502875048	0.05931254611825884
1.0360172669544494	0.07471925121190377
1.0370172836213938	0.10953486477441166
1.0380173002883382	0.05922307177808875
1.0390173169552828	0.08740166032908767
1.0400173336222271	0.05418234122738699
1.0410173502891715	0.04297346711797193
1.0420173669561161	0.09562064023625642
1.0430173836230605	0.06187400820514598
1.044017400290005	0.04281432666261145
1.0450174169569493	0.08636115508540339
1.0460174336238939	0.10028130646468873
1.0470174502908383	0.06464225913899935
1.0480174669577826	0.038068372498883576
1.0490174836247272	0.04181437391855757
1.0500175002916716	0.11661867475052229
1.051017516958616	0.1154887551589443
1.0520175336255606	0.1194493203851189
1.053017550292505	0.12091247279782415
1.0540175669594494	0.053109919559313844
1.055017583626394	0.0238990738312676
1.0560176002933384	0.11300606462532835
1.0570176169602827	0.04827712839601777
1.0580176336272271	0.08110642330113488
1.0590176502941717	0.12201230401957633
1.060017666961116	0.053608814062748936
1.0610176836280605	0.10386904757011431
1.062017700295005	0.05873134895219403
1.0630177169619495	0.05687174346532352
1.0640177336288938	0.10270696321365141
1.0650177502958385	0.061828910798022996
1.0660177669627828	0.07730260349348296
1.0670177836297272	0.059017371454740196
1.0680178002966716	0.044734641157685696
1.0690178169636162	0.09791850310016702
1.0700178336305606	0.04826131104273877
1.071017850297505	0.09160866231673176
1.0720178669644496	0.14143768107051802
1.073017883631394	0.08986095618966518
1.0740179002983383	0.10312963436810921
1.075017916965283	0.070991772113704
1.0760179336322273	0.08707811204519778
1.0770179502991717	0.11198282493426774
1.0780179669661163	0.03888301014179509
1.0790179836330607	0.0784159672367975
1.080018000300005	0.051243171747988404
1.0810180169669494	0.047687491588303314
1.082018033633894	0.10308626757890929
1.0830180503008384	0.048755524022785525
1.0840180669677828	0.0789788016285755
1.0850180836347274	0.0882587682532962
1.0860181003016718	0.05319921587293134
1.0870181169686162	0.10483960946629885
1.0880181336355608	0.030850114606589655
1.0890181503025052	0.06435777858005556
1.0900181669694495	0.11505496804071999
1.0910181836363941	0.058099272544057494
1.0920182003033385	0.08563895695458429
1.093018216970283	0.11502156471600325
1.0940182336372273	0.1359308943097469
1.0950182503041719	0.13191221749786075
1.0960182669711163	0.0918442247101767
1.0970182836380606	0.1091480756021959
1.0980183003050052	0.12483899221018174
1.0990183169719496	0.10328963785600369
1.100018333638894	0.04634037440120173
1.1010183503058386	0.07141665405120459
1.102018366972783	0.07970521680919923
1.1030183836397274	0.09503969801752507
1.104018400306672	0.047385101665360634
1.1050184169736164	0.12032830325929526
1.1060184336405607	0.09453018624511292
1.1070184503075051	0.07853407963060953
1.1080184669744497	0.07952159939686067
1.109018483641394	0.049665997856253766
1.1100185003083385	0.054652165507280345
1.111018516975283	0.055949002553584475
1.1120185336422275	0.04227236551927786
1.1130185503091719	0.0424912481829437
1.1140185669761165	0.10440744013503175
1.1150185836430608	0.1291931199761968
1.1160186003100052	0.1297257385281742
1.1170186169769498	0.09832979039328524
1.1180186336438942	0.07018856244441192
1.1190186503108386	0.1280592103455987
1.120018666977783	0.11412846072273564
1.1210186836447276	0.07697793111693246
1.122018700311672	0.11726483067659148
1.1230187169786163	0.09643345968944628
1.124018733645561	0.12107539217641146
1.1250187503125053	0.1109763092281737
1.1260187669794497	0.04293130624016188
1.1270187836463943	0.10029355262942952
1.1280188003133387	0.07021555557895245
1.129018816980283	0.10318003722609005
1.1300188336472277	0.017110555733971085
1.131018850314172	0.06436320143875711
1.1320188669811164	0.10953732907873623
1.1330188836480608	0.07073921503867069
1.1340189003150054	0.048670729181222755
1.1350189169819498	0.12475841710151034
1.1360189336488942	0.10007342627828439
1.1370189503158388	0.10602630135576388
1.1380189669827832	0.022950635676258033
1.1390189836497275	0.11834887323545748
1.1400190003166721	0.027820220503772333
1.1410190169836165	0.0789307571783211
1.142019033650561	0.0395409714531351
1.1430190503175053	0.04877937790215036
1.1440190669844499	0.0755137484788829
1.1450190836513943	0.08464224445655703
1.1460191003183386	0.0930534590505595
1.1470191169852832	0.08018156892118977
1.1480191336522276	0.08895665543752064
1.149019150319172	0.07576986709655964
1.1500191669861166	0.10873843234036551
1.151019183653061	0.1308977040920723
1.1520192003200054	0.08852579386277584
1.15301921698695	0.07195052759516792
1.1540192336538944	0.07598720528923783
1.1550192503208387	0.04984700767287815
1.1560192669877831	0.06766360602719676
1.1570192836547277	0.045052521727155445
1.158019300321672	0.10686780364815184
1.1590193169886165	0.028186311687127697
1.160019333655561	0.056430197527448836
1.1610193503225055	0.09384376809337547
1.1620193669894499	0.05122542463927885
1.1630193836563945	0.11275083086925652
1.1640194003233388	0.09452028014305784
1.1650194169902832	0.08496945932253433
1.1660194336572278	0.0746844831844575
1.1670194503241722	0.04156209573468347
1.1680194669911166	0.05606334551332805
1.169019483658061	0.07984318680042973
1.1700195003250056	0.07311288905702579
1.17101951699195	0.1009241990347566
1.1720195336588943	0.04940852879947897
1.173019550325839	0.0942685996695018
1.1740195669927833	0.05871955880772278
1.1750195836597277	0.11094191344153964
1.1760196003266723	0.07296075495004348
1.1770196169936167	0.0918988241628456
1.178019633660561	0.07953613107718696
1.1790196503275057	0.05073913875096067
1.18001966699445	0.10562464708757371
1.1810196836613944	0.09823294226716521
1.1820197003283388	0.03271129424531227
1.1830197169952834	0.05277290892297167
1.1840197336622278	0.11303311042061014
1.1850197503291722	0.09461990084701472
1.1860197669961168	0.09060897857819597
1.1870197836630612	0.06101801242219063
1.1880198003300055	0.036990741756615056
1.1890198169969501	0.12542785350362118
1.1900198336638945	0.12457403622206505
1.191019850330839	0.106233942558189
1.1920198669977835	0.10855569904145232
1.1930198836647279	0.044415704327587166
1.1940199003316723	0.11196328722013006
1.1950199169986166	0.0899880845161474
1.1960199336655613	0.026936674918550063
1.1970199503325056	0.09893706949917774
1.19801996699945	0.09040792572803161
1.1990199836663946	0.07049391074826657
1.200020000333339	0.028263117869400042
1.2010200170002834	0.06226093931574763
1.202020033667228	0.031001194735443816
1.2030200503341724	0.09586626019800018
1.2040200670011167	0.052799682568570996
1.2050200836680613	0.09933807562326644
1.2060201003350057	0.06450928145613878
1.20702011700195	0.12203853312235562
1.2080201336688945	0.0655530203121151
1.209020150335839	0.047798858621263006
1.2100201670027835	0.08709154114431628
1.2110201836697279	0.10018006158723503
1.2120202003366725	0.1293728654976643
1.2130202170036168	0.06845085331069614
1.2140202336705612	0.045998471287810004
1.2150202503375058	0.0899132341482717
1.2160202670044502	0.04997067989460005
1.2170202836713946	0.06040800096144388
1.218020300338339	0.053744521563672
1.2190203170052836	0.0840937930065127
1.220020333672228	0.03802189419096501
1.2210203503391723	0.07946363956157293
1.222020367006117	0.11876351049207132
1.2230203836730613	0.07367233922186636
1.2240204003400057	0.05856441512515577
1.2250204170069503	0.09702493912452961
1.2260204336738947	0.047590674007853925
1.227020450340839	0.1056248220858187
1.2280204670077837	0.11013665778417897
1.229020483674728	0.060675557003240004
1.2300205003416724	0.09271495124489398
1.2310205170086168	0.055864531697008044
1.2320205336755614	0.051809209400810796
1.2330205503425058	0.10299205953891648
1.2340205670094502	0.07795771130050018
1.2350205836763948	0.14518832634100573
1.2360206003433392	0.033473520263072286
1.2370206170102835	0.11290557478878809
1.2380206336772281	0.11693762468723504
1.2390206503441725	0.037187879725385696
1.240020667011117	0.10930673189038206
1.2410206836780615	0.08325636075554294
1.242020700345006	0.05217288641825764
1.2430207170119503	0.09183595065418869
1.2440207336788947	0.09560703220185632
1.2450207503458393	0.12232737899873021
1.2460207670127836	0.11729338583190822
1.247020783679728	0.08232312307978558
1.2480208003466726	0.1223174927295321
1.249020817013617	0.0320301586686819
1.2500208336805614	0.10938172500546735
1.251020850347506	0.12946176502064322
1.2520208670144504	0.05252562659481796
1.2530208836813947	0.04993028853110142
1.2540209003483394	0.05502292807314803
1.2550209170152837	0.08503703939874344
1.2560209336822281	0.11777526811405109
1.2570209503491725	0.0412126968559921
1.258020967016117	0.07668912950738771
1.2590209836830615	0.07049563148948645
1.2600210003500059	0.03331647773945872
1.2610210170169505	0.10592549746468632
1.2620210336838948	0.10594742865139259
1.2630210503508392	0.05113947540216481
1.2640210670177838	0.0932253951109828
1.2650210836847282	0.05853310415081983
1.2660211003516726	0.10509545431612531
1.2670211170186172	0.07824741474727687
1.2680211336855616	0.1079443802738101
1.269021150352506	0.10689044558091597
1.2700211670194503	0.10656084902985598
1.271021183686395	0.0500953081837142
1.2720212003533393	0.130806174941685
1.2730212170202837	0.060946850030635116
1.2740212336872283	0.07709636437978323
1.2750212503541727	0.034049591670189165
1.276021267021117	0.044534326782476416
1.2770212836880617	0.07138566138412897
1.278021300355006	0.10517178743822055
1.2790213170219504	0.05218712181281372
1.2800213336888948	0.02366992275904425
1.2810213503558394	0.10582289355213492
1.2820213670227838	0.03742826641383596
1.2830213836897282	0.11957649942079775
1.2840214003566728	0.05436268672510024
1.2850214170236172	0.038396534212608475
1.2860214336905615	0.08020994787584228
1.2870214503575061	0.06699595323623977
1.2880214670244505	0.10900230041544677
1.289021483691395	0.03989098368345277
1.2900215003583395	0.056131568087725243
1.291021517025284	0.12433236233465032
1.2920215336922283	0.09327767987569441
1.2930215503591727	0.04416584794921406
1.2940215670261173	0.05201813869417263
1.2950215836930616	0.12556364937467307
1.296021600360006	0.08308090241168138
1.2970216170269506	0.11438576710021575
1.298021633693895	0.08472301540750884
1.2990216503608394	0.08147702095085176
1.300021667027784	0.11459715612483994
1.3010216836947284	0.0955004044727034
1.3020217003616728	0.11738419486247778
1.3030217170286174	0.1513564468874436
1.3040217336955617	0.07673676862732363
1.3050217503625061	0.11622872716030465
1.3060217670294505	0.09000386437332544
1.307021783696395	0.11627746733422692
1.3080218003633395	0.11744198777922867
1.3090218170302839	0.07545154047632169
1.3100218336972285	0.10538374515883789
1.3110218503641728	0.08633684444663986
1.3120218670311172	0.06768750914007308
1.3130218836980618	0.12081478334432362
1.3140219003650062	0.037145533177247454
1.3150219170319506	0.048594973486172435
1.3160219336988952	0.06098571813264117
1.3170219503658396	0.06782046813681492
1.318021967032784	0.09289823682955324
1.3190219836997283	0.08198874629533426
1.320022000366673	0.14260237684239277
1.3210220170336173	0.09057447664062471
1.3220220337005617	0.0754314496088288
1.3230220503675063	0.03867287092842073
1.3240220670344507	0.11212327230133476
1.325022083701395	0.039144602095215086
1.3260221003683397	0.10177342591748596
1.327022117035284	0.08576899304134994
1.3280221337022284	0.10782866488269792
1.329022150369173	0.11690118796001041
1.3300221670361174	0.03578918580888023
1.3310221837030618	0.07554909524199026
1.3320222003700062	0.06548944788368986
1.3330222170369508	0.05569060254579024
1.3340222337038952	0.11119962598866301
1.3350222503708395	0.08054063724091186
1.3360222670377842	0.022127890672725588
1.3370222837047285	0.05717303517583801
1.338022300371673	0.0859416678010891
1.3390223170386175	0.08384759150015629
1.340022333705562	0.07694950763345411
1.3410223503725063	0.0576259536856202
1.3420223670394509	0.09356546619136573
1.3430223837063953	0.12668122311476948
1.3440224003733396	0.0969747986607946
1.345022417040284	0.072137623843317
1.3460224337072286	0.03278461325338918
1.347022450374173	0.022918034971513818
1.3480224670411174	0.055792122738361836
1.349022483708062	0.06889199929866875
1.3500225003750064	0.0729772593164049
1.3510225170419508	0.09847912874414183
1.3520225337088954	0.05084792454207494
1.3530225503758397	0.06506717899648826
1.3540225670427841	0.06186113670612732
1.3550225837097285	0.09355892622554267
1.356022600376673	0.11648447071784382
1.3570226170436175	0.047357718646835585
1.3580226337105619	0.1083301934754401
1.3590226503775065	0.06138649378690694
1.3600226670444509	0.026924065951372585
1.3610226837113952	0.10860634176539309
1.3620227003783398	0.01264252986152501
1.3630227170452842	0.06369340765712782
1.3640227337122286	0.05055386745554366
1.3650227503791732	0.04043568699778334
1.3660227670461176	0.05615447572739806
1.367022783713062	0.08135172440502825
1.3680228003800063	0.07519249158696263
1.369022817046951	0.043742748271843684
1.3700228337138953	0.06897001902535921
1.3710228503808397	0.12593651822431226
1.3720228670477843	0.04126288152095463
1.3730228837147287	0.12113098306730284
1.374022900381673	0.05130869186448136
1.3750229170486177	0.13696422937635944
1.376022933715562	0.05739895172386377
1.3770229503825064	0.08135932954052244
1.378022967049451	0.06458686875373293
1.3790229837163954	0.016229822557010068
1.3800230003833398	0.11376503731362768
1.3810230170502842	0.11870153019900655
1.3820230337172288	0.02862369551439267
1.3830230503841732	0.05904648742950013
1.3840230670511176	0.12096523584723365
1.3850230837180622	0.06760829320737603
1.3860231003850065	0.12182125347298146
1.387023117051951	0.10194958987102118
1.3880231337188955	0.04850967764454597
1.38902315038584	0.11827974603214725
1.3900231670527843	0.06784811862818148
1.3910231837197289	0.10974453455339842
1.3920232003866733	0.06957909607428836
1.3930232170536176	0.04761322181282107
1.394023233720562	0.06238817473034092
1.3950232503875066	0.11889114163236725
1.396023267054451	0.11333838649761842
1.3970232837213954	0.10218028113184544
1.39802330038834	0.10949422218130334
1.3990233170552844	0.01927283193602808
1.4000233337222288	0.13159076742711837
1.4010233503891734	0.03583158623262472
1.4020233670561177	0.037844470505450784
1.4030233837230621	0.10464287578594439
1.4040234003900067	0.09513687136482599
1.405023417056951	0.03866651803546278
1.4060234337238955	0.08375626118334945
1.4070234503908399	0.10121654675423022
1.4080234670577845	0.04116768920890124
1.4090234837247289	0.05274456031587007
1.4100235003916732	0.08566252609353708
1.4110235170586178	0.13098129500641464
1.4120235337255622	0.04563450106630075
1.4130235503925066	0.07540649147057606
1.4140235670594512	0.036182294787401176
1.4150235837263956	0.062058202698005806
1.41602360039334	0.07496560271297138
1.4170236170602846	0.08916846622423412
1.418023633727229	0.058026203747886584
1.4190236503941733	0.04766013507710047
1.4200236670611177	0.04926529627052241
1.4210236837280623	0.12397606848373546
1.4220237003950067	0.04597924636713584
1.423023717061951	0.0758512285036895
1.4240237337288957	0.08379477677249919
1.42502375039584	0.05208747797118836
1.4260237670627844	0.10325820899503974
1.427023783729729	0.05055893631422853
1.4280238003966734	0.06088994385148639
1.4290238170636178	0.04294897519868343
1.4300238337305622	0.12347991387177938
1.4310238503975068	0.08965720793168734
1.4320238670644512	0.02684590473597935
1.4330238837313956	0.10625092339127754
1.4340239003983402	0.08817412893148407
1.4350239170652845	0.07394171624526528
1.436023933732229	0.11896542705949567
1.4370239503991735	0.051198886777862045
1.438023967066118	0.11865657242547634
1.4390239837330623	0.04709361717516594
1.4400240004000069	0.077752847828376
1.4410240170669513	0.09570751276021594
1.4420240337338956	0.05300488092695001
1.44302405040084	0.13500816773502342
1.4440240670677846	0.035557025402476794
1.445024083734729	0.08291915648872107
1.4460241004016734	0.04552826850270636
1.447024117068618	0.08701751862374583
1.4480241337355624	0.04917204369179004
1.4490241504025068	0.10602651685101441
1.4500241670694514	0.04183574372419604
1.4510241837363957	0.054836791016264555
1.4520242004033401	0.04491430207191028
1.4530242170702847	0.10411267443772192
1.454024233737229	0.07196229642902034
1.4550242504041735	0.10438370127548986
1.4560242670711179	0.07354644520824238
1.4570242837380625	0.03078634370116037
1.4580243004050069	0.02345944628589354
1.4590243170719512	0.07921398752343156
1.4600243337388958	0.09792190721641605
1.4610243504058402	0.053266982537188444
1.4620243670727846	0.11042048733752258
1.4630243837397292	0.12423699506431898
1.4640244004066736	0.06321533074532995
1.465024417073618	0.11066653045500083
1.4660244337405626	0.09247914258494974
1.467024450407507	0.04978989303353566
1.4680244670744513	0.13987965897490678
1.4690244837413957	0.09788879307320458
1.4700245004083403	0.05896326266632938
1.4710245170752847	0.10702017876710583
1.472024533742229	0.00894426179274405
1.4730245504091737	0.1334250187222041
1.474024567076118	0.11867880980194498
1.4750245837430624	0.06704838047025659
1.476024600410007	0.07129025623012156
1.4770246170769514	0.06528112166301578
1.4780246337438958	0.01872094154668652
1.4790246504108404	0.06157444814364872
1.4800246670777848	0.06638212323423476
1.4810246837447292	0.09621852429756128
1.4820247004116736	0.0441305163504671
1.4830247170786182	0.07277289950446633
1.4840247337455625	0.041426290469676066
1.485024750412507	0.05467193158149978
1.4860247670794515	0.07845961368453613
1.487024783746396	0.08831763664011441
1.4880248004133403	0.1254028020617656
1.489024817080285	0.08205184155122275
1.4900248337472293	0.062752549085568
1.4910248504141737	0.06335118981781022
1.4920248670811183	0.10155215058713728
1.4930248837480626	0.02478782079442132
1.494024900415007	0.1224268285501467
1.4950249170819514	0.08730220170282363
1.496024933748896	0.11553933991719287
1.4970249504158404	0.05792476054849822
1.4980249670827848	0.03648011762441108
1.4990249837497294	0.033483249104208836
1.5000250004166737	0.12696351095024258
1.5010250170836181	0.062867297327699
1.5020250337505627	0.08939371601378227
1.5030250504175071	0.061043171131345685
1.5040250670844515	0.12843956140549254
1.5050250837513959	0.09094645535465151
1.5060251004183405	0.05812723845379141
1.5070251170852849	0.11587091710024328
1.5080251337522292	0.03888621525127299
1.5090251504191738	0.06553907747014825
1.5100251670861182	0.09181145528975101
1.5110251837530626	0.056104762835270765
1.5120252004200072	0.1280776224403683
1.5130252170869516	0.04299343049833818
1.514025233753896	0.06343218256920853
1.5150252504208406	0.12150067067194271
1.516025267087785	0.08814940855772427
1.5170252837547293	0.03820695073456011
1.5180253004216737	0.038722138036370146
1.5190253170886183	0.10784526777475804
1.5200253337555627	0.04656661826331189
1.521025350422507	0.12441846601503846
1.5220253670894517	0.06161345852411049
1.523025383756396	0.09390082167604975
1.5240254004233404	0.04604175026510619
1.525025417090285	0.06171912631965524
1.5260254337572294	0.09826619810086819
1.5270254504241738	0.05944596209672125
1.5280254670911184	0.09080935688220124
1.5290254837580628	0.12463361874876479
1.5300255004250072	0.07389192107440376
1.5310255170919516	0.08966951762859003
1.5320255337588962	0.07592947499306742
1.5330255504258405	0.053957136824757834
1.534025567092785	0.09281402162340949
1.5350255837597295	0.09457662063524973
1.536025600426674	0.03450273847450691
1.5370256170936183	0.0323655784971965
1.538025633760563	0.03788641976245218
1.5390256504275073	0.09044792083454554
1.5400256670944517	0.06077131893244826
1.5410256837613963	0.08535475215305076
1.5420257004283406	0.054908486357400144
1.543025717095285	0.03680628594388145
1.5440257337622294	0.09408616826922198
1.545025750429174	0.08140809608279408
1.5460257670961184	0.11754350731296029
1.5470257837630628	0.09159782754145745
1.5480258004300074	0.05726648821695648
1.5490258170969518	0.060433337404343535
1.5500258337638961	0.0937056295332252
1.5510258504308407	0.07820213078131986
1.5520258670977851	0.035729919416345284
1.5530258837647295	0.06650255664123716
1.554025900431674	0.08746702450238852
1.5550259170986185	0.08299195460712909
1.5560259337655629	0.12337288719278043
1.5570259504325072	0.1100518194297532
1.5580259670994518	0.08311557897999206
1.5590259837663962	0.136847817240977
1.5600260004333406	0.10017493617711036
1.5610260171002852	0.08724547021630558
1.5620260337672296	0.08599223603227713
1.563026050434174	0.11076771752715774
1.5640260671011186	0.11444084859854312
1.565026083768063	0.08913953583778322
1.5660261004350073	0.04553341835169221
1.567026117101952	0.13923159879798938
1.5680261337688963	0.10345926479148956
1.5690261504358407	0.13751554608134656
1.570026167102785	0.05015585601565543
1.5710261837697297	0.04748780281764608
1.572026200436674	0.12246115513581902
1.5730262171036185	0.08466285904167233
1.574026233770563	0.1158884845756083
1.5750262504375074	0.02986822088736838
1.5760262671044518	0.09844175595578024
1.5770262837713964	0.08615022694930725
1.5780263004383408	0.05695438426367773
1.5790263171052852	0.031432999982617615
1.5800263337722296	0.13307361316367855
1.5810263504391742	0.056746677305720916
1.5820263671061185	0.04389113381908859
1.583026383773063	0.054450668496451665
1.5840264004400075	0.09827020971144304
1.585026417106952	0.07844926977834152
1.5860264337738963	0.08948015644702301
1.587026450440841	0.07807805016934148
1.5880264671077853	0.037344321938913176
1.5890264837747297	0.11481176077264171
1.5900265004416743	0.06907464912175673
1.5910265171086186	0.11816823758661822
1.592026533775563	0.047812772480718344
1.5930265504425074	0.04124472919967871
1.594026567109452	0.08686055131851879
1.5950265837763964	0.07299989334252589
1.5960266004433408	0.05732822278069715
1.5970266171102854	0.13532887551640185
1.5980266337772298	0.09927209793167346
1.5990266504441741	0.05606910908833016
1.6000266671111187	0.09473859313858393
1.6010266837780631	0.09745635220231642
1.6020267004450075	0.1081203892383025
1.603026717111952	0.05775910678725491
1.6040267337788965	0.029398064102219082
1.6050267504458409	0.07076455569466188
1.6060267671127852	0.09024234129558488
1.6070267837797299	0.08064111138298341
1.6080268004466742	0.07451791774575783
1.6090268171136186	0.11587783577320794
1.6100268337805632	0.13005461220412426
1.6110268504475076	0.03679785644433565
1.612026867114452	0.10506162483537909
1.6130268837813966	0.0966408604834702
1.614026900448341	0.08252719338850109
1.6150269171152853	0.13014416105015036
1.61602693378223	0.052757430209217436
1.6170269504491743	0.09037784640912833
1.6180269671161187	0.08450132822789047
1.619026983783063	0.03971439878376454
1.6200270004500077	0.0776757892098552
1.621027017116952	0.11882045222025497
1.6220270337838965	0.06190550269021164
1.623027050450841	0.11982109008030889
1.6240270671177854	0.08754724596494438
1.6250270837847298	0.0625250831902593
1.6260271004516744	0.08941777630600982
1.6270271171186188	0.08693509302235873
1.6280271337855632	0.12929216074116837
1.6290271504525078	0.110027128515265
1.6300271671194522	0.03974955990736899
1.6310271837863966	0.0902559382863673
1.632027200453341	0.05826153519561848
1.6330272171202855	0.08582339939809278
1.63402723378723	0.04471420426179312
1.6350272504541743	0.11756863502690829
1.636027267121119	0.0729845450187835
1.6370272837880633	0.09579519354013406
1.6380273004550077	0.1236817709816743
1.6390273171219523	0.046786099594412475
1.6400273337888966	0.0869038235273686
1.641027350455841	0.10656241171332834
1.6420273671227856	0.09828071896663837
1.64302738378973	0.060239490579305534
1.6440274004566744	0.12474703572412141
1.6450274171236188	0.15038806145493647
1.6460274337905634	0.14117938170329306
1.6470274504575078	0.07498768714716966
1.6480274671244521	0.07932446041596986
1.6490274837913967	0.03882457353698727
1.6500275004583411	0.060274670663530906
1.6510275171252855	0.06980263233796782
1.65202753379223	0.06528458962957197
1.6530275504591745	0.04043452561950461
1.6540275671261189	0.0999817526975435
1.6550275837930633	0.03859833687906029
1.6560276004600079	0.07756740374644075
1.6570276171269522	0.11341421750941909
1.6580276337938966	0.058341278688107574
1.6590276504608412	0.05508078842439405
1.6600276671277856	0.10379827925531104
1.66102768379473	0.024362715052398214
1.6620277004616746	0.12980618773156308
1.663027717128619	0.05322018512002292
1.6640277337955633	0.04637131318768568
1.665027750462508	0.03861802111210514
1.6660277671294523	0.10500516395250385
1.6670277837963967	0.10419627857407286
1.668027800463341	0.1230316732429886
1.6690278171302857	0.023963363514433202
1.67002783379723	0.10346751552410731
1.6710278504641745	0.08505981021678478
1.672027867131119	0.1431652250138759
1.6730278837980634	0.13096289700898675
1.6740279004650078	0.09530025183136667
1.6750279171319524	0.10942359515419636
1.6760279337988968	0.1139592723804988
1.6770279504658412	0.0537809509766407
1.6780279671327858	0.08417409506255207
1.6790279837997302	0.0628333454791347
1.6800280004666746	0.09307653153666051
1.681028017133619	0.0902405553213919
1.6820280338005635	0.08986340636731285
1.683028050467508	0.0931193971045894
1.6840280671344523	0.07609571502195286
1.685028083801397	0.04411581719715478
1.6860281004683413	0.06772518261406911
1.6870281171352857	0.024901320477955992
1.6880281338022303	0.040550705876690005
1.6890281504691746	0.06534250839504761
1.690028167136119	0.03592533957921269
1.6910281838030636	0.0745823106422244
1.692028200470008	0.07239369902077213
1.6930282171369524	0.12649937932870434
1.6940282338038968	0.11586559764724796
1.6950282504708414	0.10005196045122772
1.6960282671377858	0.04525110888201133
1.6970282838047301	0.05903092404480971
1.6980283004716747	0.09942356388076254
1.6990283171386191	0.13491204221438885
1.7000283338055635	0.0949057548440454
1.701028350472508	0.03998634241190492
1.7020283671394525	0.06785300030344
1.7030283838063969	0.1254002630188264
1.7040284004733415	0.09035353244220366
1.7050284171402859	0.10422317076634799
1.7060284338072302	0.04822268713242409
1.7070284504741746	0.11266865791541694
1.7080284671411192	0.04361065259865213
1.7090284838080636	0.04125816827525298
1.710028500475008	0.0641417961456314
1.7110285171419526	0.063433066651723
1.712028533808897	0.07709216037176096
1.7130285504758413	0.09654106336895582
1.714028567142786	0.0603742469341894
1.7150285838097303	0.09701038966682597
1.7160286004766747	0.05425815139898471
1.7170286171436193	0.06358958434021855
1.7180286338105637	0.12579803465051706
1.719028650477508	0.10038908342029515
1.7200286671444525	0.11388124158707022
1.721028683811397	0.09763094526494509
1.7220287004783414	0.10297498465317012
1.7230287171452858	0.13287475511940783
1.7240287338122304	0.02950655262118872
1.7250287504791748	0.11794584822332069
1.7260287671461192	0.06385030868513342
1.7270287838130638	0.07653641489535823
1.7280288004800082	0.06777730473957183
1.7290288171469526	0.10490427597698064
1.730028833813897	0.057117177409861476
1.7310288504808415	0.05269404275543709
1.732028867147786	0.053724114567675146
1.7330288838147303	0.11057596014526246
1.734028900481675	0.04765015552805964
1.7350289171486193	0.037074846629774026
1.7360289338155637	0.044714579357614
1.7370289504825083	0.11372910559708774
1.7380289671494527	0.055291056133474216
1.739028983816397	0.07417887500900806
1.7400290004833416	0.07582769738136122
1.741029017150286	0.10801937285487741
1.7420290338172304	0.03909478618295848
1.7430290504841748	0.058879740967744745
1.7440290671511194	0.12221492200598069
1.7450290838180638	0.037888430445023755
1.7460291004850081	0.07321012322820322
1.7470291171519527	0.11669829952435846
1.7480291338188971	0.03727968958857757
1.7490291504858415	0.13266979495667783
1.7500291671527861	0.0809791865275372
1.7510291838197305	0.061736669764258865
1.7520292004866749	0.08030362951674028
1.7530292171536195	0.09258956254327574
1.7540292338205639	0.09157138971912573
1.7550292504875082	0.044807165444131034
1.7560292671544526	0.08873223915171669
1.7570292838213972	0.07640618098437249
1.7580293004883416	0.03342663484587061
1.759029317155286	0.02541875114391319
1.7600293338222306	0.048867683467757876
1.761029350489175	0.03304246664244092
1.7620293671561194	0.1310660437060033
1.763029383823064	0.05935219168215242
1.7640294004900083	0.057327297101485465
1.7650294171569527	0.12031718697518555
1.7660294338238973	0.09160905328343079
1.7670294504908417	0.10207127021582539
1.768029467157786	0.10784814733869091
1.7690294838247305	0.10494627867101758
1.770029500491675	0.046203940403553474
1.7710295171586194	0.08200574849962923
1.7720295338255638	0.0920707752846968
1.7730295504925084	0.108325115366238
1.7740295671594528	0.04028543542269403
1.7750295838263972	0.06088609438943242
1.7760296004933418	0.11503396270076431
1.7770296171602862	0.04781842721928835
1.7780296338272306	0.08624596867590392
1.7790296504941752	0.09282856573553479
1.7800296671611195	0.12083753428367291
1.781029683828064	0.019942521810110022
1.7820297004950083	0.08019019415113982
1.783029717161953	0.09659118613011566
1.7840297338288973	0.08602292925564771
1.7850297504958417	0.09227040994907582
1.7860297671627863	0.08465412539239058
1.7870297838297307	0.10882437889167208
1.788029800496675	0.0848641818587122
1.7890298171636196	0.051804029882104335
1.790029833830564	0.06179692455913362
1.7910298504975084	0.08519289041084833
1.792029867164453	0.11687500580093114
1.7930298838313974	0.07062211790526354
1.7940299004983418	0.06580772831393919
1.7950299171652861	0.050203171186690806
1.7960299338322308	0.05148510600231571
1.7970299504991751	0.10916957987942337
1.7980299671661195	0.10143491722538038
1.7990299838330641	0.06532201484087605
1.8000300005000085	0.06325950862393674
1.8010300171669529	0.0667895407981169
1.8020300338338975	0.055940464587401456
1.8030300505008419	0.08276814488508456
1.8040300671677862	0.05530041299298398
1.8050300838347306	0.033245192889487074
1.8060301005016752	0.0898109902250391
1.8070301171686196	0.09451467427553022
1.808030133835564	0.02982544234109897
1.8090301505025086	0.11926729312516382
1.810030167169453	0.07941739336214465
1.8110301838363974	0.02415630129870815
1.812030200503342	0.033560103862309607
1.8130302171702863	0.11200338017670688
1.8140302338372307	0.053001310604251395
1.8150302505041753	0.11932810462623332
1.8160302671711197	0.08055949826893809
1.817030283838064	0.04375911223760398
1.8180303005050085	0.11605987746051212
1.819030317171953	0.0997954442730992
1.8200303338388975	0.12238023837372755
1.8210303505058418	0.07819490776597704
1.8220303671727864	0.06777638656297749
1.8230303838397308	0.09580529688047106
1.8240304005066752	0.10294245028741834
1.8250304171736198	0.11531909075750651
1.8260304338405642	0.05128282227341047
1.8270304505075086	0.09712978293587356
1.8280304671744532	0.06267485430973264
1.8290304838413975	0.11660862314428723
1.830030500508342	0.0459829928087582
1.8310305171752863	0.12172167229619586
1.832030533842231	0.10681526034805931
1.8330305505091753	0.08220722696928012
1.8340305671761197	0.13795144447830573
1.8350305838430643	0.11877036534451349
1.8360306005100087	0.03159571885633968
1.837030617176953	0.09017859367699098
1.8380306338438976	0.10595689569877609
1.839030650510842	0.04333138276518102
1.8400306671777864	0.018820852910416457
1.841030683844731	0.08698995777203324
1.8420307005116754	0.05349580175585917
1.8430307171786198	0.12685157055958118
1.8440307338455642	0.10395608536439321
1.8450307505125088	0.10289885077704848
1.8460307671794531	0.08605516665367567
1.8470307838463975	0.09984804068931454
1.8480308005133421	0.09259229837659916
1.8490308171802865	0.0922417096289207
1.8500308338472309	0.08628244426118924
1.8510308505141755	0.08741177139226847
1.8520308671811199	0.13238580495394062
1.8530308838480642	0.04667850459326382
1.8540309005150089	0.04951525213931527
1.8550309171819532	0.09257539963795466
1.8560309338488976	0.1328420265673994
1.857030950515842	0.09757434687986513
1.8580309671827866	0.0787995001250386
1.859030983849731	0.09776336998811308
1.8600310005166754	0.10162929638304644
1.86103101718362	0.06483485679636183
1.8620310338505643	0.01754007165436304
1.8630310505175087	0.1174473325977363
1.8640310671844533	0.07812832366074883
1.8650310838513977	0.0752415260907449
1.866031100518342	0.08217766707909928
1.8670311171852865	0.044918425806037124
1.868031133852231	0.04218313185689828
1.8690311505191755	0.10329466465631294
1.8700311671861198	0.08510548683213019
1.8710311838530644	0.0304258716760602
1.8720312005200088	0.12210343172276425
1.8730312171869532	0.0966013923578236
1.8740312338538978	0.10693242776393419
1.8750312505208422	0.05715421214573242
1.8760312671877866	0.010942232619492988
1.8770312838547312	0.12118415686098626
1.8780313005216756	0.08046787527823217
1.87903131718862	0.033680608503640436
1.8800313338555643	0.06975960141439441
1.881031350522509	0.1129245652753996
1.8820313671894533	0.09163393898723333
1.8830313838563977	0.10961208630719763
1.8840314005233423	0.12492649342996723
1.8850314171902867	0.058661957744030255
1.886031433857231	0.05761190643054243
1.8870314505241756	0.14244786416344876
1.88803146719112	0.04969743098715846
1.8890314838580644	0.05304330436359399
1.890031500525009	0.07129067184994918
1.8910315171919534	0.03389686748640805
1.8920315338588978	0.12996731161252287
1.8930315505258422	0.049645450705778416
1.8940315671927868	0.04456192582334298
1.8950315838597311	0.06759358846468824
1.8960316005266755	0.09858592930773605
1.8970316171936201	0.07720063350925917
1.8980316338605645	0.04575254979781536
1.8990316505275089	0.11880789861743873
1.9000316671944535	0.08642558902298836
1.9010316838613979	0.11486721295995148
1.9020317005283423	0.05765344969438545
1.9030317171952869	0.09062778767340686
1.9040317338622312	0.05502346387301232
1.9050317505291756	0.06836760999593977
1.90603176719612	0.11834626039957795
1.9070317838630646	0.1227332897716297
1.908031800530009	0.13062039190535032
1.9090318171969534	0.10861839478180516
1.910031833863898	0.07406650250497213
1.9110318505308423	0.12102025013992121
1.9120318671977867	0.041770584821671536
1.9130318838647313	0.0471484838788156
1.9140319005316757	0.058202810519392294
1.91503191719862	0.030779857080462176
1.9160319338655647	0.08101432731324698
1.917031950532509	0.06387774195183248
1.9180319671994535	0.048544693747741785
1.9190319838663978	0.05318150738753402
1.9200320005333424	0.06446733397386935
1.9210320172002868	0.08968831677774451
1.9220320338672312	0.11779131136697821
1.9230320505341758	0.08467033377516624
1.9240320672011202	0.06117915586037694
1.9250320838680646	0.1090742529496789
1.9260321005350092	0.01946696920282469
1.9270321172019536	0.05599094676091514
1.928032133868898	0.11914371505092664
1.9290321505358425	0.05446028664236621
1.930032167202787	0.0967159067283351
1.9310321838697313	0.04771984389356241
1.9320322005366757	0.10698747575538191
1.9330322172036203	0.11870509056645687
1.9340322338705647	0.10534190861615725
1.935032250537509	0.03907898829825827
1.9360322672044536	0.03707037714074653
1.937032283871398	0.12933096964871904
1.9380323005383424	0.07800158694171813
1.939032317205287	0.07349900268853156
1.9400323338722314	0.03648323287932567
1.9410323505391758	0.12620816693961426
1.9420323672061202	0.09632441043629482
1.9430323838730648	0.013951671242227726
1.9440324005400091	0.040240576307931764
1.9450324172069535	0.08404158597169745
1.9460324338738981	0.07180204892430712
1.9470324505408425	0.10031362690429795
1.9480324672077869	0.03436665125636679
1.9490324838747315	0.09595493207824483
1.9500325005416759	0.03026031185000915
1.9510325172086203	0.06456091950902824
1.9520325338755649	0.09938217284394922
1.9530325505425092	0.10126977961256903
1.9540325672094536	0.056744546516767844
1.955032583876398	0.04478435359460523
1.9560326005433426	0.05031410533599738
1.957032617210287	0.08382876432023506
1.9580326338772314	0.05852920770017607
1.959032650544176	0.05321146496882331
1.9600326672111203	0.0635194911352045
1.9610326838780647	0.05102408574473998
1.9620327005450093	0.04368233325537854
1.9630327172119537	0.06845999673877214
1.964032733878898	0.1127329551901461
1.9650327505458427	0.04082604809656159
1.966032767212787	0.10235669967618835
1.9670327838797315	0.1092254143103007
1.9680328005466758	0.09705119891786619
1.9690328172136204	0.1368250891861801
1.9700328338805648	0.07802533856645998
1.9710328505475092	0.1341829574536711
1.9720328672144538	0.12815869987833542
1.9730328838813982	0.10244102790060176
1.9740329005483426	0.04220350705334826
1.9750329172152872	0.05302569100004076
1.9760329338822316	0.11545039159137885
1.977032950549176	0.07093176531275606
1.9780329672161205	0.02668332348202661
1.979032983883065	0.08844071815581359
1.9800330005500093	0.031695262785661225
1.9810330172169537	0.03710671205950013
1.9820330338838983	0.09707878516662655
1.9830330505508427	0.13992848139026695
1.984033067217787	0.11733690345585104
1.9850330838847317	0.0978856353117308
1.986033100551676	0.042077161125545715
1.9870331172186204	0.05021448106314862
1.988033133885565	0.029815432203517823
1.9890331505525094	0.06985607990711044
1.9900331672194538	0.0374420443346246
1.9910331838863984	0.08434167326622663
1.9920332005533428	0.07531989982318668
1.9930332172202871	0.10699630057537868
1.9940332338872315	0.04659878279098065
1.9950332505541761	0.06110115736803306
1.9960332672211205	0.042412021647558334
1.997033283888065	0.11004678303012182
1.9980333005550095	0.1423018823206377
1.9990333172219539	0.04054636001911864
2.0000333338888985	0.053291809411224154
2.0010333505558426	0.1141579903996575
2.0020333672227872	0.05723656930495802
2.003033383889732	0.09712976547438451
2.004033400556676	0.05984795781424587
2.0050334172236206	0.09601929950439513
2.006033433890565	0.0478277276357867
2.0070334505575094	0.08443888478131036
2.008033467224454	0.044314991678163884
2.0090334838913986	0.08783759865275327
2.0100335005583427	0.03533448301791773
2.0110335172252873	0.09784829463546632
2.0120335338922315	0.040758331923074764
2.013033550559176	0.12939699906018318
2.0140335672261207	0.07841395651362759
2.015033583893065	0.12628987535093558
2.0160336005600095	0.10029155685637492
2.017033617226954	0.10276756851205217
2.0180336338938982	0.0899415017253114
2.019033650560843	0.08297821937321001
2.0200336672277874	0.05802103828837263
2.0210336838947316	0.04910493204079802
2.022033700561676	0.12504852659020163
2.023033717228621	0.09958517842479789
2.024033733895565	0.05286268918209438
2.0250337505625096	0.09215403372607485
2.026033767229454	0.08106725657736913
2.0270337838963983	0.05949734152361609
2.028033800563343	0.07358710332289428
2.0290338172302875	0.058273073169087246
2.0300338338972317	0.024417017988074823
2.0310338505641763	0.08527733285605744
2.032033867231121	0.06214001798439922
2.033033883898065	0.13235593152693692
2.0340339005650097	0.13138258033557604
2.0350339172319543	0.12210554248599949
2.0360339338988984	0.027828817398233518
2.037033950565843	0.13277700371105028
2.038033967232787	0.060837657855829924
2.039033983899732	0.06403317584759731
2.0400340005666764	0.09026740983850708
2.0410340172336205	0.07321517197217323
2.042034033900565	0.08921756233204786
2.0430340505675098	0.12899220451407134
2.044034067234454	0.08739645165080337
2.0450340839013985	0.05233389234136235
2.046034100568343	0.12382861857403313
2.0470341172352873	0.09380701904696374
2.048034133902232	0.04312346377282831
2.0490341505691765	0.04033751922959872
2.0500341672361206	0.03766848742882873
2.0510341839030652	0.13905022949807785
2.05203420057001	0.13334444652778274
2.053034217236954	0.10882795375195335
2.0540342339038986	0.07903714981477446
2.055034250570843	0.054600562314578334
2.0560342672377874	0.02655508634076071
2.057034283904732	0.03605531509434187
2.0580343005716766	0.04676800679966468
2.0590343172386207	0.11141595246276473
2.0600343339055653	0.07035083810194444
2.0610343505725095	0.09372293102498942
2.062034367239454	0.07539996647362944
2.0630343839063987	0.11080511990749245
2.064034400573343	0.050969325759926964
2.0650344172402875	0.041164918801832345
2.066034433907232	0.04782729356080532
2.0670344505741762	0.10895698877750654
2.068034467241121	0.05905102403836775
2.0690344839080654	0.08818750650473506
2.0700345005750096	0.1104216711985464
2.071034517241954	0.0966628934011371
2.072034533908899	0.12420454327458874
2.073034550575843	0.043046783567435236
2.0740345672427876	0.08881954761205345
2.075034583909732	0.11398423275444286
2.0760346005766763	0.03986525427240443
2.077034617243621	0.11733283811548514
2.0780346339105655	0.06706165373200787
2.0790346505775097	0.09687745631706551
2.0800346672444543	0.1051015438377208
2.081034683911399	0.05874728739122119
2.082034700578343	0.04701554977506359
2.0830347172452877	0.021562762456714825
2.0840347339122323	0.09378567686141401
2.0850347505791764	0.09312504156523249
2.086034767246121	0.0793583416403276
2.087034783913065	0.0455929305053951
2.08803480058001	0.051361492368390306
2.0890348172469544	0.0866991967701101
2.0900348339138985	0.08073400800394738
2.091034850580843	0.05779901600305917
2.0920348672477878	0.06723962914209163
2.093034883914732	0.1039551712293368
2.0940349005816765	0.09065453731816359
2.095034917248621	0.1135807267334329
2.0960349339155653	0.05220120356287032
2.09703495058251	0.06903819470426781
2.0980349672494545	0.06870509449951082
2.0990349839163986	0.14036836452573892
2.1000350005833432	0.09808661235496761
2.101035017250288	0.07850691195120559
2.102035033917232	0.12936290814898924
2.1030350505841766	0.10843627233389538
2.104035067251121	0.037807767376119135
2.1050350839180654	0.07058861211792619
2.10603510058501	0.03924588661957142
2.1070351172519546	0.04259076697837314
2.1080351339188987	0.06351102421421001
2.1090351505858433	0.08569413595689612
2.110035167252788	0.06554377385062715
2.111035183919732	0.07186401077395822
2.1120352005866767	0.07389455697291078
2.113035217253621	0.06747501454348585
2.1140352339205655	0.04374212163216922
2.11503525058751	0.07116831045298054
2.1160352672544542	0.08718916810425899
2.117035283921399	0.0240962093777048
2.1180353005883434	0.08444906161495584
2.1190353172552876	0.11798277183240424
2.120035333922232	0.051223309348567905
2.121035350589177	0.11751210188323914
2.122035367256121	0.044362271868725156
2.1230353839230656	0.0663511231255457
2.12403540059001	0.142386711182996
2.1250354172569543	0.10059918596785296
2.126035433923899	0.022541637146180335
2.1270354505908435	0.10888378090149617
2.1280354672577877	0.06591987992406333
2.1290354839247323	0.08923920343011844
2.130035500591677	0.06890503747166848
2.131035517258621	0.05979122709396246
2.1320355339255657	0.10103366930623779
2.1330355505925103	0.08693445691840632
2.1340355672594544	0.036954290787202436
2.135035583926399	0.09766583076938452
2.136035600593343	0.04183457289498943
2.137035617260288	0.082703856331628
2.1380356339272324	0.04842654351919963
2.1390356505941766	0.1231632403043276
2.140035667261121	0.10331582413377231
2.1410356839280658	0.06834227687887409
2.14203570059501	0.13776836027122225
2.1430357172619545	0.10166656452992318
2.144035733928899	0.03714422626571453
2.1450357505958433	0.042914518583325595
2.146035767262788	0.04267945602793813
2.1470357839297325	0.06947004570797882
2.1480358005966766	0.11640848453424818
2.1490358172636213	0.10514475688188425
2.150035833930566	0.06655265186840259
2.15103585059751	0.05098818293276434
2.1520358672644546	0.10600532829933997
2.153035883931399	0.05716122246803578
2.1540359005983434	0.06350437736512762
2.155035917265288	0.10068376593149489
2.1560359339322326	0.03373601489755436
2.1570359505991767	0.07619325833200616
2.1580359672661213	0.04126909495661145
2.159035983933066	0.10774287473552575
2.16003600060001	0.09747844538395463
2.1610360172669547	0.04243259183566228
2.162036033933899	0.08254624964027707
2.1630360506008435	0.0907565610211898
2.164036067267788	0.043265906804168495
2.1650360839347322	0.07429105513584996
2.166036100601677	0.11429416900015381
2.1670361172686214	0.04491687007624229
2.1680361339355656	0.03811403778015863
2.16903615060251	0.0461431429365627
2.170036167269455	0.08101891850054749
2.171036183936399	0.11490060470097432
2.1720362006033436	0.11487467451281234
2.173036217270288	0.09669891358001732
2.1740362339372323	0.02265566875294512
2.175036250604177	0.10931156883610789
2.1760362672711215	0.025581060243877102
2.1770362839380657	0.1346647249299618
2.1780363006050103	0.054802494406961916
2.179036317271955	0.1017306683351105
2.180036333938899	0.1294453143692081
2.1810363506058437	0.11522615085730496
2.1820363672727883	0.04445462284414468
2.1830363839397324	0.10568407820413582
2.184036400606677	0.07874000789992086
2.1850364172736216	0.05503373607110526
2.186036433940566	0.06283337082664162
2.1870364506075104	0.10427285387307217
2.1880364672744546	0.06927697711377227
2.189036483941399	0.11609286586105377
2.1900365006083438	0.07225143092625094
2.191036517275288	0.07451081707780376
2.1920365339422325	0.05231736888413947
2.193036550609177	0.0901001677667351
2.1940365672761213	0.10633087618111026
2.195036583943066	0.13378454566994688
2.1960366006100105	0.03739808148320124
2.1970366172769547	0.09836713040993697
2.1980366339438993	0.04675281943930361
2.199036650610844	0.03964666463324364
2.200036667277788	0.08936652898351537
2.2010366839447326	0.08631961385828688
2.2020367006116772	0.10186504008248755
2.2030367172786214	0.06371197491004599
2.204036733945566	0.08121760105399999
2.2050367506125106	0.04220570148470578
2.2060367672794547	0.07325326517965422
2.2070367839463993	0.06131664741594316
2.208036800613344	0.05968932014904769
2.209036817280288	0.09516593618873032
2.2100368339472327	0.09505901243054843
2.211036850614177	0.06283260554256144
2.2120368672811215	0.06774660531375272
2.213036883948066	0.057336392490010726
2.2140369006150102	0.14107940164362856
2.215036917281955	0.07157586195740655
2.2160369339488994	0.11693298558223096
2.2170369506158436	0.10844712604252153
2.218036967282788	0.11441952974146793
2.219036983949733	0.10967013799890217
2.220037000616677	0.047759550308669116
2.2210370172836216	0.12869455960500875
2.222037033950566	0.07447957246467198
2.2230370506175103	0.06509588402850454
2.224037067284455	0.11943953594438311
2.2250370839513995	0.06822252541240051
2.2260371006183437	0.07056423580887423
2.2270371172852883	0.06874417321366443
2.228037133952233	0.035981964233892993
2.229037150619177	0.09603143020344991
2.2300371672861217	0.041807888550579125
2.2310371839530663	0.05614092344029952
2.2320372006200104	0.09070057987242118
2.233037217286955	0.04539539841037226
2.2340372339538996	0.10031453385299952
2.235037250620844	0.04656148993938871
2.2360372672877884	0.05841463960385737
2.2370372839547326	0.12259911808907016
2.238037300621677	0.07507285709335909
2.2390373172886218	0.07219464346550895
2.240037333955566	0.13033722258315933
2.2410373506225105	0.08911490043808189
2.242037367289455	0.051956085446731824
2.2430373839563993	0.08803987559105073
2.244037400623344	0.06734173909191037
2.2450374172902885	0.04018833273228913
2.2460374339572327	0.06738932212363453
2.2470374506241773	0.06224735578592753
2.248037467291122	0.06400882621677012
2.249037483958066	0.0552367094960166
2.2500375006250106	0.08987060076221136
2.2510375172919552	0.05081539420778402
2.2520375339588994	0.03309286032258098
2.253037550625844	0.0633369650734916
2.2540375672927886	0.052995864988834254
2.2550375839597327	0.09784725949689194
2.2560376006266774	0.12094059374438099
2.257037617293622	0.08061759060902546
2.258037633960566	0.05434873636316345
2.2590376506275107	0.04740290372837523
2.2600376672944553	0.10422667941150325
2.2610376839613995	0.09950875220101288
2.262037700628344	0.05519741786897812
2.2630377172952882	0.10364334372465762
2.264037733962233	0.05433018089633175
2.2650377506291774	0.08920654115515758
2.2660377672961216	0.10279234391049924
2.267037783963066	0.04917293002637152
2.268037800630011	0.10359028765495702
2.269037817296955	0.07566809663282716
2.2700378339638996	0.09417754421864839
2.271037850630844	0.059469339607244
2.2720378672977883	0.08763546284361685
2.273037883964733	0.13127972151375358
2.2740379006316775	0.06758565644293413
2.2750379172986217	0.08951850005800156
2.2760379339655663	0.04997515860608463
2.277037950632511	0.11043296010342371
2.278037967299455	0.03911330662883664
2.2790379839663997	0.07846300414457066
2.2800380006333443	0.08405193028781313
2.2810380173002884	0.05970202254794239
2.282038033967233	0.06815137593112659
2.2830380506341776	0.0270538487049896
2.284038067301122	0.05681619713857942
2.2850380839680664	0.05958911537997742
2.2860381006350106	0.11617248854332678
2.287038117301955	0.08851214059105739
2.2880381339688998	0.04634400101847734
2.289038150635844	0.1280620330645551
2.2900381673027885	0.021660747565974702
2.291038183969733	0.07615726893692085
2.2920382006366773	0.07351028692609159
2.293038217303622	0.11621722220576193
2.2940382339705665	0.062286397787913755
2.2950382506375107	0.04045758522343373
2.2960382673044553	0.03883772721642688
2.2970382839714	0.06551098439102244
2.298038300638344	0.1032889502474054
2.2990383173052886	0.06454818704029729
2.3000383339722332	0.02553024192254591
2.3010383506391774	0.06934330965247636
2.302038367306122	0.014622836101041134
2.3030383839730666	0.06370789581067589
2.3040384006400108	0.04230553246318693
2.3050384173069554	0.11757072124894014
2.3060384339739	0.09102923482367983
2.307038450640844	0.10582744678838564
2.3080384673077887	0.06487603561657038
2.3090384839747333	0.06919898694646945
2.3100385006416775	0.1131510422329281
2.311038517308622	0.08574138309761968
2.3120385339755662	0.11978693339129992
2.313038550642511	0.03910532571441139
2.3140385673094555	0.04999106144100971
2.3150385839763996	0.10041405256165496
2.316038600643344	0.08346375113409021
2.317038617310289	0.09910135499656343
2.318038633977233	0.08517382885654701
2.3190386506441776	0.054835156292656714
2.320038667311122	0.10538573112921532
2.3210386839780663	0.07318783360476462
2.322038700645011	0.07053248934500989
2.3230387173119555	0.12934064874836215
2.3240387339788997	0.11622928523429871
2.3250387506458443	0.0807991887108697
2.326038767312789	0.09814828435293842
2.327038783979733	0.07122483634410473
2.3280388006466777	0.11308305921297589
2.3290388173136223	0.10067228988846666
2.3300388339805664	0.11750679248777086
2.331038850647511	0.0568404684360701
2.3320388673144556	0.06287821210084997
2.3330388839814	0.09673981977879062
2.3340389006483444	0.10358751785909608
2.335038917315289	0.01716674922503068
2.336038933982233	0.08364089162121083
2.3370389506491778	0.10984074930926027
2.338038967316122	0.10280137414985865
2.3390389839830665	0.09628617113530906
2.340039000650011	0.11109960880948445
2.3410390173169553	0.08893475834107563
2.3420390339839	0.047825281193177464
2.3430390506508445	0.07634651727769062
2.3440390673177887	0.030918189822718063
2.3450390839847333	0.08067859114814578
2.346039100651678	0.05433065329540388
2.347039117318622	0.049448189741042016
2.3480391339855666	0.11116721021072871
2.3490391506525112	0.11606328961400672
2.3500391673194554	0.1060266090624894
2.3510391839864	0.05916664909923879
2.3520392006533446	0.13546002325330408
2.3530392173202888	0.05725337055824782
2.3540392339872334	0.11740636559261046
2.355039250654178	0.08639711090052263
2.356039267321122	0.04829186587117898
2.3570392839880667	0.12490142106764603
2.3580393006550113	0.03941345641183711
2.3590393173219555	0.033259040656217646
2.3600393339889	0.10629474945607402
2.3610393506558442	0.06842850320187413
2.362039367322789	0.11291098267237851
2.3630393839897335	0.04177687761767562
2.3640394006566776	0.13175317672479495
2.365039417323622	0.1311512134566623
2.366039433990567	0.10540013942725669
2.367039450657511	0.1357135846643155
2.3680394673244556	0.052914062576943144
2.3690394839914	0.08285431027923773
2.3700395006583443	0.10744994761158132
2.371039517325289	0.09223192358070371
2.3720395339922336	0.020250189569856913
2.3730395506591777	0.11388282537027959
2.3740395673261223	0.05529941153624884
2.375039583993067	0.08388974353041662
2.376039600660011	0.0985307696393684
2.3770396173269557	0.09752064684744088
2.3780396339939003	0.1304682769061307
2.3790396506608444	0.08608097101667526
2.380039667327789	0.07483717269090155
2.3810396839947336	0.1292940376977615
2.382039700661678	0.1032811095767002
2.3830397173286224	0.08539299171414158
2.384039733995567	0.015540852495152711
2.385039750662511	0.10715229571180815
2.3860397673294558	0.11351422765459503
2.3870397839964	0.0695873981992636
2.3880398006633445	0.08947593500498881
2.389039817330289	0.06232856046936736
2.3900398339972333	0.124306674569183
2.391039850664178	0.1050744784046151
2.3920398673311225	0.04514252083349331
2.3930398839980667	0.14927848765719245
2.3940399006650113	0.12960632796836707
2.395039917331956	0.10919814720966692
2.3960399339989	0.11642595849384703
2.3970399506658446	0.0927477030560043
2.3980399673327892	0.0496591641425439
2.3990399839997334	0.05108231919065518
2.400040000666678	0.09717346730109513
2.4010400173336226	0.07674578896499301
2.4020400340005668	0.09471551573327988
2.4030400506675114	0.08274826940178953
2.404040067334456	0.0671166804808735
2.4050400840014	0.07355835380021178
2.4060401006683447	0.0872075224141079
2.4070401173352893	0.09678120962307828
2.4080401340022335	0.09908165144451009
2.409040150669178	0.114337849172721
2.4100401673361227	0.07375791099827395
2.411040184003067	0.027083859168776443
2.4120402006700115	0.08129305177982252
2.4130402173369556	0.09978090391853597
2.4140402340039	0.045906744287807624
2.415040250670845	0.053050822686578285
2.416040267337789	0.051553103425503635
2.4170402840047336	0.08109273836214322
2.418040300671678	0.018472697179510944
2.4190403173386223	0.048092429040834876
2.420040334005567	0.10296134758587495
2.4210403506725116	0.07108965060044915
2.4220403673394557	0.04790240746058747
2.4230403840064003	0.10230491096054968
2.424040400673345	0.028153173195666473
2.425040417340289	0.05318945653233538
2.4260404340072337	0.05488182434449803
2.4270404506741783	0.08539367813617658
2.4280404673411224	0.014348119216309449
2.429040484008067	0.10199617829418557
2.4300405006750116	0.04026089647985027
2.431040517341956	0.09871329947347646
2.4320405340089004	0.07101345614571791
2.433040550675845	0.044244684244216015
2.434040567342789	0.0790814233149115
2.4350405840097338	0.12435492518540127
2.436040600676678	0.1419049255071415
2.4370406173436225	0.06125232857822413
2.438040634010567	0.07705460481952009
2.4390406506775113	0.1356124863421722
2.440040667344456	0.10908877918176205
2.4410406840114005	0.04799208569680212
2.4420407006783447	0.029812317221431087
2.4430407173452893	0.12645140699312438
2.444040734012234	0.0506436076575534
2.445040750679178	0.06366039309036714
2.4460407673461226	0.07811392037331541
2.4470407840130672	0.07657089139160596
2.4480408006800114	0.017572128820592885
2.449040817346956	0.034865215669873606
2.4500408340139006	0.06354769946390171
2.4510408506808448	0.11353374390458884
2.4520408673477894	0.03705986647585813
2.453040884014734	0.07940593226643633
2.454040900681678	0.1002942168080192
2.4550409173486227	0.12719854060183294
2.4560409340155673	0.0339542487141633
2.4570409506825115	0.08291437927493128
2.458040967349456	0.05250581346939648
2.4590409840164007	0.11474533228728084
2.460041000683345	0.07624605197001823
2.4610410173502895	0.09062701936799931
2.4620410340172336	0.09868133517098962
2.4630410506841782	0.13119075917148537
2.464041067351123	0.0919472734908942
2.465041084018067	0.007389930106112538
2.4660411006850116	0.08565094283426576
2.467041117351956	0.05847003513594742
2.4680411340189004	0.027482975184226193
2.469041150685845	0.10764803831442862
2.4700411673527896	0.04959569553542703
2.4710411840197337	0.057255590913115696
2.4720412006866783	0.10514062932739131
2.473041217353623	0.04157832389084387
2.474041234020567	0.09417137414799487
2.4750412506875117	0.10852645647457838
2.4760412673544563	0.06471111758042059
2.4770412840214004	0.12152028203306932
2.478041300688345	0.06335694624254021
2.4790413173552897	0.057514116696350336
2.480041334022234	0.03100882293264597
2.4810413506891784	0.04233646589039443
2.482041367356123	0.09402273655841675
2.483041384023067	0.093848311809297
2.484041400690012	0.013209509374963423
2.4850414173569564	0.05131141958502386
2.4860414340239005	0.12902742567817918
2.487041450690845	0.03072327219843041
2.4880414673577893	0.08741685835338105
2.489041484024734	0.12166150445064873
2.4900415006916785	0.12702940920092
2.4910415173586227	0.057045670799580464
2.4920415340255673	0.06891111879313896
2.493041550692512	0.06491201636135156
2.494041567359456	0.13132127765223492
2.4950415840264006	0.0990301330766584
2.4960416006933452	0.1253003388684888
2.4970416173602894	0.04576519967840983
2.498041634027234	0.10832397763539525
2.4990416506941786	0.06128480995202771
2.5000416673611228	0.049419497223132894
2.5010416840280674	0.10342401193832074
2.502041700695012	0.10959038946357205
2.503041717361956	0.11558732158074146
2.5040417340289007	0.07255767253723507
2.5050417506958453	0.0876760507488912
2.5060417673627895	0.05069242479276698
2.507041784029734	0.04603434983897381
2.5080418006966787	0.12271034077465129
2.509041817363623	0.026388342384052674
2.5100418340305675	0.09900451121817273
2.5110418506975116	0.12979449018044445
2.5120418673644562	0.05362922347849674
2.513041884031401	0.07736379194657181
2.514041900698345	0.032197998574196904
2.5150419173652896	0.0952868096996651
2.516041934032234	0.09765215365241231
2.5170419506991784	0.07782861197855116
2.518041967366123	0.12498098055644159
2.5190419840330676	0.05941400705896545
2.5200420007000117	0.12621995001493425
2.5210420173669563	0.09714109722478843
2.522042034033901	0.09370073103049593
2.523042050700845	0.06964899664999061
2.5240420673677897	0.05701334458620023
2.5250420840347343	0.07634581824955274
2.5260421007016785	0.026823507422420997
2.527042117368623	0.12568776920688354
2.5280421340355677	0.023126483096401654
2.529042150702512	0.05075460674063995
2.5300421673694564	0.12798768564891008
2.531042184036401	0.043311046772431326
2.532042200703345	0.10813526725209598
2.53304221737029	0.07485265446148338
2.5340422340372344	0.13001647527613797
2.5350422507041785	0.048083390429828926
2.536042267371123	0.0322721087429352
2.5370422840380673	0.06737639052700799
2.538042300705012	0.05407719401471588
2.5390423173719565	0.12774565784605102
2.5400423340389007	0.052054893214837264
2.5410423507058453	0.09090142434499812
2.54204236737279	0.09089721027418736
2.543042384039734	0.11780112942895754
2.5440424007066786	0.10180992837714506
2.5450424173736232	0.07455032600822073
2.5460424340405674	0.12202770318453454
2.547042450707512	0.014766992702615972
2.5480424673744566	0.1181990794265114
2.5490424840414008	0.08505436868737658
2.5500425007083454	0.10409792409823428
2.55104251737529	0.04186857662554787
2.552042534042234	0.05411111967918618
2.5530425507091787	0.029997290039654727
2.5540425673761233	0.10090885213899466
2.5550425840430675	0.06122050185742299
2.556042600710012	0.04704402922779836
2.5570426173769567	0.04043401908869905
2.558042634043901	0.026816386179907517
2.5590426507108455	0.13179177838480105
2.5600426673777896	0.12048270910187903
2.5610426840447342	0.04166330304187119
2.562042700711679	0.06763606577305185
2.563042717378623	0.10729260005759468
2.5640427340455676	0.0694488812210964
2.565042750712512	0.06493271622434084
2.5660427673794564	0.04171105601269432
2.567042784046401	0.10038564164042614
2.5680428007133456	0.07747132493115833
2.5690428173802897	0.06470408054877935
2.5700428340472343	0.0809506794787121
2.571042850714179	0.07796250807990322
2.572042867381123	0.12040898169710654
2.5730428840480677	0.047528456112912065
2.5740429007150123	0.10317897325123634
2.5750429173819565	0.043318196982699744
2.576042934048901	0.0665540251298884
2.5770429507158457	0.10539825188818253
2.57804296738279	0.06165968464125116
2.5790429840497344	0.051285745934785354
2.580043000716679	0.12001422215929948
2.581043017383623	0.06571521470318151
2.582043034050568	0.03403151380794568
2.5830430507175124	0.08815907082492518
2.5840430673844565	0.08889591638162475
2.585043084051401	0.04131810363345172
2.5860431007183453	0.06593352843207914
2.58704311738529	0.05717153722147347
2.5880431340522345	0.055582469507393165
2.5890431507191787	0.12028260775767342
2.5900431673861233	0.05003658252734866
2.591043184053068	0.07279650762718437
2.592043200720012	0.06944313067354067
2.5930432173869566	0.06835914502668292
2.5940432340539012	0.08285116093749714
2.5950432507208454	0.07035773007829527
2.59604326738779	0.044212342897442934
2.5970432840547346	0.08544121050194378
2.5980433007216788	0.09538126236956987
2.5990433173886234	0.03722150971822326
2.600043334055568	0.12578708145792034
2.601043350722512	0.059275294271615576
2.6020433673894567	0.0762555420687409
2.6030433840564013	0.09742168643875324
2.6040434007233455	0.10436858393114834
2.60504341739029	0.03512251541856145
2.6060434340572347	0.08632596522805056
2.607043450724179	0.1107668349607323
2.6080434673911235	0.055859788863011635
2.609043484058068	0.029954245924853212
2.6100435007250122	0.0597187351184551
2.611043517391957	0.03248750847542962
2.612043534058901	0.13869832746675034
2.6130435507258456	0.10542134845770314
2.61404356739279	0.10902224182906903
2.6150435840597344	0.0857230504472929
2.616043600726679	0.09303434415004068
2.6170436173936236	0.046469381057985065
2.6180436340605677	0.1188256992827749
2.6190436507275123	0.0803778558768712
2.620043667394457	0.08332703820115486
2.621043684061401	0.12392590812972154
2.6220437007283457	0.09652030806838142
2.6230437173952903	0.10447978369736671
2.6240437340622345	0.057122132639364845
2.625043750729179	0.0844225616391807
2.6260437673961237	0.07423824169077638
2.627043784063068	0.0853986334088953
2.6280438007300124	0.13514209606114722
2.629043817396957	0.056319084801253375
2.630043834063901	0.11915959514438061
2.631043850730846	0.10587594619440967
2.6320438673977904	0.11122228939081172
2.6330438840647346	0.025038265010137322
2.634043900731679	0.05740922798544342
2.6350439173986233	0.09387781846891917
2.636043934065568	0.06069706349662199
2.6370439507325125	0.08132244779738945
2.6380439673994567	0.07526317303429807
2.6390439840664013	0.05647041334613711
2.640044000733346	0.07982066803128511
2.64104401740029	0.10042553550778045
2.6420440340672346	0.10795330436210221
2.6430440507341793	0.03868712599332062
2.6440440674011234	0.04549752008655099
2.645044084068068	0.1267577770414575
2.6460441007350126	0.034476970994514355
2.6470441174019568	0.045654401019147944
2.6480441340689014	0.07378943601193214
2.649044150735846	0.11577321717020843
2.65004416740279	0.0899066877882427
2.6510441840697347	0.12622969480250892
2.6520442007366793	0.04598588756008841
2.6530442174036235	0.0775606108478998
2.654044234070568	0.0325275356799649
2.6550442507375127	0.1233376550976845
2.656044267404457	0.059607026760214434
2.6570442840714015	0.08578331621188402
2.658044300738346	0.04076981298943671
2.6590443174052902	0.06299593449606504
2.660044334072235	0.07618247821449128
2.661044350739179	0.08544150785578128
2.6620443674061236	0.0840842305293665
2.663044384073068	0.0333326559818955
2.6640444007400124	0.12281544559884477
2.665044417406957	0.08620320670345312
2.6660444340739016	0.09690864502405808
2.6670444507408457	0.04230843830178668
2.6680444674077903	0.049913334449016244
2.669044484074735	0.1074546634878437
2.670044500741679	0.07220902714048309
2.6710445174086237	0.10611057066374542
2.6720445340755683	0.1052857588370702
2.6730445507425125	0.06492123210331388
2.674044567409457	0.08834291855048274
2.6750445840764017	0.14260266506778693
2.676044600743346	0.06688443116524923
2.6770446174102904	0.047137743250181004
2.678044634077235	0.09537459650591947
2.679044650744179	0.038151814026813294
2.680044667411124	0.026694238046482136
2.6810446840780684	0.13414896404065096
2.6820447007450126	0.05529249032865998
2.683044717411957	0.055457672679880776
2.6840447340789018	0.03576521066468094
2.685044750745846	0.09976751788008645
2.6860447674127905	0.07225647223885902
2.6870447840797347	0.08178115648705578
2.6880448007466793	0.026421088997907963
2.689044817413624	0.06823690323439288
2.690044834080568	0.11167841354551157
2.6910448507475127	0.09627779755798922
2.6920448674144573	0.03168879416491705
2.6930448840814014	0.04408830653215771
2.694044900748346	0.12822253938798372
2.6950449174152906	0.021773995972375677
2.696044934082235	0.03794482891999246
2.6970449507491794	0.09156539643580096
2.698044967416124	0.11832766716286167
2.699044984083068	0.04164770273687261
2.7000450007500127	0.023373617291403387
2.7010450174169574	0.0772196898299558
2.7020450340839015	0.02318891507341364
2.703045050750846	0.07763080074003433
2.7040450674177907	0.04551220736320553
2.705045084084735	0.086815128214415
2.7060451007516795	0.053890398289167446
2.707045117418624	0.11645435503181858
2.7080451340855682	0.0936215176606998
2.709045150752513	0.10530830325072112
2.710045167419457	0.04390779156017839
2.7110451840864016	0.07405650548795273
2.712045200753346	0.08801220220702452
2.7130452174202904	0.06336335471510374
2.714045234087235	0.10267585000280985
2.7150452507541796	0.11478970460341822
2.7160452674211237	0.09301237241246321
2.7170452840880683	0.04534628095334841
2.718045300755013	0.10226934282755708
2.719045317421957	0.09953426850180018
2.7200453340889017	0.08814762552821921
2.7210453507558463	0.03466544421166298
2.7220453674227905	0.12710417862260737
2.723045384089735	0.09236164969019885
2.7240454007566797	0.09510585455344339
2.725045417423624	0.1176575676185567
2.7260454340905684	0.13446076388874859
2.727045450757513	0.09161851137255302
2.728045467424457	0.04142528447386461
2.729045484091402	0.0981140973803803
2.7300455007583464	0.09053849992357313
2.7310455174252906	0.038312830107166074
2.732045534092235	0.058247520973025095
2.7330455507591798	0.0650699723479301
2.734045567426124	0.10950746953347215
2.7350455840930685	0.11700121636778466
2.7360456007600127	0.08122374117464959
2.7370456174269573	0.042612232192736355
2.738045634093902	0.09585648507989354
2.739045650760846	0.06499908606962071
2.7400456674277907	0.12515988019083163
2.7410456840947353	0.1035180123749838
2.7420457007616794	0.06347737052055853
2.743045717428624	0.11454561988045656
2.7440457340955686	0.10126995802156169
2.745045750762513	0.0345573252029306
2.7460457674294574	0.07887734043559944
2.747045784096402	0.07630753201894248
2.748045800763346	0.13612628476122926
2.7490458174302908	0.055903123329828074
2.7500458340972354	0.06767588277596875
2.7510458507641795	0.10798055309994865
2.752045867431124	0.03361048663840712
2.7530458840980687	0.037735651685598046
2.754045900765013	0.13632745837902474
2.7550459174319575	0.1116140038212069
2.756045934098902	0.03962864753406208
2.7570459507658462	0.08620521492319261
2.758045967432791	0.05178118730538106
2.7590459840997354	0.06687208012437827
2.7600460007666796	0.11693666824173352
2.761046017433624	0.07237425501914918
2.7620460341005684	0.0692161177197721
2.763046050767513	0.061568637591957305
2.7640460674344576	0.07240654638437949
2.7650460841014017	0.10276735028241707
2.7660461007683463	0.13374956849874275
2.767046117435291	0.01937141745416571
2.768046134102235	0.1410549771012937
2.7690461507691797	0.06450724415862202
2.7700461674361243	0.05599690398569355
2.7710461841030685	0.033666805904767214
2.772046200770013	0.05837891013941929
2.7730462174369577	0.04020655321043886
2.774046234103902	0.035781034153791504
2.7750462507708464	0.05211456659546698
2.776046267437791	0.10373644621427236
2.777046284104735	0.03452690618525884
2.77804630077168	0.02938627906531111
2.7790463174386244	0.02215695835573897
2.7800463341055686	0.06580447555785085
2.781046350772513	0.1029779450293065
2.7820463674394578	0.09485220088031193
2.783046384106402	0.0889858142716764
2.7840464007733465	0.09659772442890677
2.7850464174402907	0.0787720375935884
2.7860464341072353	0.07449315689551046
2.78704645077418	0.04541188622817706
2.788046467441124	0.07421223627975364
2.7890464841080687	0.04680423766431751
2.7900465007750133	0.10628303331881132
2.7910465174419574	0.12766414978312857
2.792046534108902	0.07377757774993712
2.7930465507758466	0.1201736797422176
2.794046567442791	0.11144741337149278
2.7950465841097354	0.08032901403064167
2.79604660077668	0.06511448986362829
2.797046617443624	0.12352207773556528
2.7980466341105688	0.05004395757508327
2.7990466507775134	0.06391903554111107
2.8000466674444575	0.03437056388112825
2.801046684111402	0.08501415169763703
2.8020467007783467	0.09727534930428586
2.803046717445291	0.027228444726453097
2.8040467341122355	0.10228246420457467
2.80504675077918	0.07160489026148491
2.8060467674461242	0.06735479499836518
2.807046784113069	0.06312580552949032
2.8080468007800135	0.057687690320809344
2.8090468174469576	0.07026056022370525
2.810046834113902	0.09748932028005057
2.8110468507808464	0.07594913196409318
2.812046867447791	0.09065694468312917
2.8130468841147356	0.06981607129966831
2.8140469007816797	0.06575373649682396
2.8150469174486243	0.09879784642323972
2.816046934115569	0.039555609060019335
2.817046950782513	0.10111100728569869
2.8180469674494577	0.0457057130305095
2.8190469841164023	0.127137364299424
2.8200470007833465	0.07504538617321098
2.821047017450291	0.06906424669717444
2.8220470341172357	0.08224534234919806
2.82304705078418	0.049284963401626296
2.8240470674511244	0.06389377784608848
2.825047084118069	0.038675783374772406
2.826047100785013	0.09511457671783467
2.827047117451958	0.11405299294143335
2.8280471341189024	0.09830113020632615
2.8290471507858466	0.02970592490842369
2.830047167452791	0.1084625104255697
2.8310471841197358	0.04110233847838991
2.83204720078668	0.05979669807652026
2.8330472174536245	0.06524494699097552
2.834047234120569	0.05558321010246251
2.8350472507875133	0.10598378749726868
2.836047267454458	0.07961430673695508
2.837047284121402	0.13134715932098193
2.8380473007883467	0.11545544874142494
2.8390473174552913	0.051581215555100736
2.8400473341222354	0.1226033749398362
2.84104735078918	0.05566936926899146
2.8420473674561246	0.05866097039619651
2.843047384123069	0.031165209266507413
2.8440474007900134	0.055501920104209915
2.845047417456958	0.09114792590881497
2.846047434123902	0.08869494511039451
2.8470474507908468	0.09371073989341298
2.8480474674577914	0.1303920237367236
2.8490474841247355	0.0465457059343215
2.85004750079168	0.04707816266815016
2.8510475174586247	0.10052473600198437
2.852047534125569	0.06619968016739552
2.8530475507925135	0.030060497601922014
2.854047567459458	0.07967078446583997
2.8550475841264022	0.051940291982444535
2.856047600793347	0.05292683134564162
2.8570476174602915	0.13187592145224047
2.8580476341272356	0.04817628715410729
2.85904765079418	0.07366717503083585
2.8600476674611244	0.07936810852734523
2.861047684128069	0.09879214437149283
2.8620477007950136	0.04707184600112303
2.8630477174619577	0.049706527465757974
2.8640477341289023	0.11298539330446823
2.865047750795847	0.05398702554035847
2.866047767462791	0.11880168653643855
2.8670477841297357	0.03107748831398558
2.8680478007966803	0.10776317429612765
2.8690478174636245	0.06338848745591026
2.870047834130569	0.04142119395810425
2.8710478507975137	0.1064935349907662
2.872047867464458	0.07632065340332739
2.8730478841314024	0.06971427089808134
2.874047900798347	0.07444854163402823
2.875047917465291	0.09362999234779168
2.876047934132236	0.1138836689833939
2.8770479507991804	0.1469614037821951
2.8780479674661246	0.06919715789399412
2.879047984133069	0.08602070402545282
2.8800480008000138	0.11648137870051566
2.881048017466958	0.04405438187883072
2.8820480341339025	0.032775908159090886
2.883048050800847	0.06833364085932762
2.8840480674677913	0.09260352247257322
2.885048084134736	0.09639586012232425
2.88604810080168	0.09147779107724276
2.8870481174686247	0.1146465125670321
2.8880481341355693	0.06040120019368415
2.8890481508025134	0.0892088340492501
2.890048167469458	0.07085570538041136
2.8910481841364026	0.10657437675625937
2.892048200803347	0.1078699204988803
2.8930482174702914	0.059690470615525695
2.894048234137236	0.09038030872968916
2.89504825080418	0.06037788591431958
2.8960482674711248	0.0897277588368468
2.8970482841380694	0.06629943289067819
2.8980483008050135	0.047777400809292936
2.899048317471958	0.0675380623420735
2.9000483341389027	0.08311702746461477
2.901048350805847	0.05885784840051103
2.9020483674727915	0.10535139261604895
2.903048384139736	0.12727500929760646
2.9040484008066803	0.05640209434604939
2.905048417473625	0.1049141480437583
2.9060484341405695	0.07194257626494605
2.9070484508075136	0.08136570829197634
2.908048467474458	0.029988014898009698
2.909048484141403	0.08962227085692323
2.910048500808347	0.06478780197038748
2.9110485174752916	0.10322902326134559
2.9120485341422357	0.11852161593001886
2.9130485508091803	0.018578923026201167
2.914048567476125	0.08195959739137695
2.915048584143069	0.09113755164700021
2.9160486008100137	0.0789380387193487
2.9170486174769583	0.03169841974613399
2.9180486341439025	0.09707245780409952
2.919048650810847	0.112960632345852
2.9200486674777917	0.06550900695465696
2.921048684144736	0.08158325797172508
2.9220487008116804	0.10447323996037602
2.923048717478625	0.05499325815413408
2.924048734145569	0.10377410344488645
2.925048750812514	0.08781067314987571
2.9260487674794584	0.09091828450757748
2.9270487841464026	0.08421165934330692
2.928048800813347	0.05875025891847499
2.9290488174802918	0.03400720385377095
2.930048834147236	0.07958767315158372
2.9310488508141805	0.06809638204785366
2.932048867481125	0.1258874568118392
2.9330488841480693	0.03693270842861173
2.934048900815014	0.051977382809746314
2.935048917481958	0.08204649423027902
2.9360489341489027	0.03152594242483556
2.9370489508158473	0.05068927212053985
2.9380489674827914	0.04928028092887891
2.939048984149736	0.02265892976652152
2.9400490008166806	0.10078997750419841
2.941049017483625	0.06638063477882385
2.9420490341505694	0.07520153601698683
2.943049050817514	0.11317917214920942
2.944049067484458	0.03712119768574305
2.9450490841514028	0.04279838961442696
2.9460491008183474	0.11763181516071829
2.9470491174852915	0.08014709633585874
2.948049134152236	0.09374836742411422
2.9490491508191807	0.08140351090457272
2.950049167486125	0.10294656902253824
2.9510491841530695	0.0899024115733913
2.952049200820014	0.02991584950059359
2.9530492174869583	0.062196246637683264
2.954049234153903	0.09142455415078463
2.9550492508208475	0.101502780817957
2.9560492674877916	0.05772420215875814
2.9570492841547362	0.03206973154695632
2.958049300821681	0.05742816046887694
2.959049317488625	0.04607437585268065
2.9600493341555696	0.1280915158961316
2.9610493508225137	0.05517514926945078
2.9620493674894584	0.09543120408999052
2.963049384156403	0.04828565168360406
2.964049400823347	0.05923628625333014
2.9650494174902917	0.04167565536486185
2.9660494341572363	0.09246741858951477
2.9670494508241805	0.11216705529709844
2.968049467491125	0.047610366740669374
2.9690494841580697	0.059349045170167106
2.970049500825014	0.09795665167337599
2.9710495174919584	0.10387460502195234
2.972049534158903	0.027539157836154664
2.973049550825847	0.0956766158930563
2.974049567492792	0.09669092778050954
2.9750495841597364	0.04853003416972182
2.9760496008266806	0.08764665707395164
2.977049617493625	0.11159293903889526
2.97804963416057	0.09319841801575739
2.979049650827514	0.09564174422000478
2.9800496674944585	0.06808507483411827
2.981049684161403	0.12934483589491647
2.9820497008283473	0.09667730113040719
2.983049717495292	0.02572837080830029
2.9840497341622365	0.0812595873463773
2.9850497508291807	0.08326877536675335
2.9860497674961253	0.0665066453729205
2.9870497841630694	0.10218794103510066
2.988049800830014	0.07077832817937608
2.9890498174969586	0.09041797404326113
2.990049834163903	0.0447612728123117
2.9910498508308474	0.0928213266042126
2.992049867497792	0.1063944947256119
2.993049884164736	0.03714685517504712
2.9940499008316808	0.07971411683339458
2.9950499174986254	0.04247078017653241
2.9960499341655695	0.07300168595321704
2.997049950832514	0.11198161665186623
2.9980499674994587	0.09413699628430885
2.999049984166403	0.046353752828147354
3.0000500008333475	0.08166824695617339
3.001050017500292	0.06659245467916909
3.0020500341672363	0.03857748845737258
3.003050050834181	0.10158523730696671
3.0040500675011255	0.1116003097820191
3.0050500841680696	0.04559404679408567
3.0060501008350142	0.0952429671522274
3.007050117501959	0.1235013918295787
3.008050134168903	0.040109363511018944
3.0090501508358476	0.13343546368012957
3.0100501675027918	0.08055677272079084
3.0110501841697364	0.06647463447958955
3.012050200836681	0.08216852791236906
