Time	Amplitude
0.0	1.1072037568104536
0.0010000166669444492	1.1013968494037114
0.0020000333338888983	1.0872784177748762
0.0030000500008333475	1.0648994965402436
0.004000066667777797	1.0347860578245225
0.005000083334722245	0.9975427514136769
0.006000100001666695	0.9538052153641549
0.0070001166686111446	0.9042400760028881
0.008000133335555593	0.8495449479272936
0.009000150002500042	0.790448434005271
0.01000016666944449	0.7277101253752061
0.011000183336388941	0.6621219948284801
0.01200020000333339	0.5945126020986427
0.013000216670277839	0.5257429011713857
0.014000233337222289	0.45670483430288805
0.015000250004166738	0.3883167844639838
0.016000266671111187	0.32132994555703953
0.017000283338055637	0.25622436713915225
0.018000300005000084	0.19341981785127502
0.019000316671944534	0.1332917624212469
0.02000033333888898	0.07617136166379043
0.021000350005833432	0.022351965783331523
0.022000366672777882	-0.027891170863016873
0.02300038333972233	-0.0743204865712484
0.02400040000666678	-0.11674272355029416
0.02500041667361123	-0.15500892792220014
0.026000433340555677	-0.18901444972212764
0.027000450007500128	-0.2186989428983522
0.028000466674444578	-0.24404636531226553
0.029000483341389025	-0.2650849787383731
0.030000500008333476	-0.28188734886429595
0.031000516675277923	-0.2945806307516658
0.03200053334222237	-0.3033779845001686
0.033000550009166824	-0.30854744111965027
0.034000566676111274	-0.3104013355340231
0.03500058334305572	-0.3092963065803133
0.03600060001000017	-0.30556954308597123
0.03700061667694462	-0.299314345903201
0.03800063334388907	-0.290898834825179
0.03900065001083352	-0.2807177053485511
0.04000066667777796	-0.2691431451513617
0.04100068334472241	-0.256513920398604
0.042000700011666864	-0.24310184160801843
0.043000716678611314	-0.22914489767040788
0.044000733345555765	-0.2148585696555725
0.045000750012500215	-0.2004358308147107
0.04600076667944466	-0.18604714658041963
0.04700078334638911	-0.1718404745666951
0.04800080001333356	-0.15794126456893132
0.04900081668027801	-0.1444524585639213
0.05000083334722246	-0.13145449070985643
0.051000850014166904	-0.11901849375116587
0.052000866681111355	-0.10724712052429121
0.053000883348055805	-0.09623433040694382
0.054000900015000255	-0.08605157496393515
0.055000916681944706	-0.07674779794147536
0.056000933348889156	-0.06834943526717342
0.0570009500158336	-0.060860415050036615
0.05800096668277805	-0.05426215758047051
0.0590009833497225	-0.04851357533028018
0.06000100001666695	-0.04355167499124682
0.0610010166836114	-0.03934540343349702
0.062001033350555845	-0.03581334069753459
0.0630010500175003	-0.03283036819456191
0.06400106668444475	-0.03027348316732343
0.0650010833513892	-0.02802179870526736
0.06600110001833365	-0.025956543744545105
0.0670011166852781	-0.023961063068011632
0.06800113335222255	-0.021920817305225406
0.069001150019167	-0.01972338293244825
0.07000116668611144	-0.01725845227264544
0.07100118335305589	-0.014449711781026197
0.07200120002000034	-0.01135455845475575
0.07300121668694479	-0.008066456650153809
0.07400123335388924	-0.004680986608352939
0.07500125002083369	-0.001295844417189245
0.07600126668777814	0.0019891579887975326
0.07700128335472259	0.005072092828364422
0.07800130002166704	0.00784891647356518
0.07900131668861149	0.010213469449749534
0.08000133335555593	0.012057476435564094
0.08100135002250038	0.013312890587266597
0.08200136668944483	0.014085136763520774
0.08300138335638928	0.014523029930592415
0.08400140002333373	0.014773269283952303
0.08500141669027818	0.014980438172367386
0.08600143335722263	0.015287004097901312
0.08700145002416708	0.015833318715914174
0.08800146669111153	0.016757617835062716
0.08900148335805598	0.018196021417300236
0.09000150002500043	0.020282533577876564
0.09100151669194487	0.023108316166354538
0.09200153335888932	0.02659855220862551
0.09300155002583377	0.030669703473338465
0.09400156669277822	0.03521793892985953
0.09500158335972267	0.04013366074280768
0.09600160002666712	0.04530713250343919
0.09700161669361157	0.05062847922964817
0.09800163336055602	0.055987687365965814
0.09900165002750047	0.06127460478356127
0.10000166669444492	0.06637894078024095
0.10100168336138937	0.07121487651022286
0.10200170002833381	0.0757994426042497
0.10300171669527826	0.08017646855798694
0.10400173336222271	0.08438964542495722
0.10500175002916716	0.08848252568532025
0.10600176669611161	0.09249852324587379
0.10700178336305606	0.09648091344005282
0.10800180003000051	0.10047283302792992
0.10900181669694496	0.10451728019621534
0.11000183336388941	0.10865711455825655
0.11100185003083386	0.1129268221701652
0.11200186669777831	0.11732613846572895
0.11300188336472275	0.12184556826103843
0.1140019000316672	0.12647547775991674
0.11500191669861165	0.13120609459282434
0.1160019333655561	0.13602750781685938
0.11700195003250055	0.1409296679157571
0.118001966699445	0.14590238679989076
0.11900198336638945	0.15093533780627066
0.1200020000333339	0.15601805569854524
0.12100201670027835	0.16114267497388798
0.1220020333672228	0.16631275274083532
0.12300205003416724	0.17153475816221295
0.12400206670111169	0.17681502184435718
0.12500208336805615	0.18215973582024156
0.1260021000350006	0.18757495354947723
0.12700211670194506	0.19306658991831308
0.1280021333688895	0.19864042123963532
0.12900215003583393	0.2043020852529679
0.1300021667027784	0.21005708112447222
0.13100218336972283	0.2159059315446219
0.1320022000366673	0.22183025737816692
0.13300221670361173	0.2278131036161791
0.1340022333705562	0.23382777313664152
0.13500225003750063	0.2398460461064182
0.1360022667044451	0.24583978176138357
0.13700228337138953	0.25178091840642153
0.138002300038334	0.257641473415427
0.13900231670527843	0.2633935432313041
0.14000233337222287	0.26900930336596796
0.14100235003916733	0.2744702771617277
0.14200236670611177	0.279797554000804
0.14300238337305624	0.2850228157747811
0.14400240004000067	0.2901778235357808
0.14500241670694514	0.2952944174049355
0.14600243337388957	0.3004045165723875
0.14700245004083404	0.3055401192972892
0.14800246670777847	0.31073330290780327
0.14900248337472294	0.3160162238011021
0.15000250004166737	0.3214211174433687
0.1510025167086118	0.3269648026708996
0.15200253337555628	0.3325978642557993
0.1530025500425007	0.33825323059459994
0.15400256670944518	0.3438639089637699
0.1550025833763896	0.3493629857087881
0.15600260004333408	0.354683626244143
0.15700261671027851	0.35975907505333393
0.15800263337722298	0.3645226556888696
0.15900265004416742	0.3689077707722696
0.16000266671111185	0.3728479019940626
0.16100268337805632	0.3763014839679472
0.16200270004500075	0.37933395751731414
0.16300271671194522	0.382039568957773
0.16400273337888965	0.3845126440439851
0.16500275004583412	0.3868475875996216
0.16600276671277855	0.38913888351736364
0.16700278337972302	0.3914810947589029
0.16800280004666746	0.39396886335494047
0.16900281671361192	0.39669691040518856
0.17000283338055636	0.3997600360783684
0.1710028500475008	0.4032210142937782
0.17200286671444526	0.4070040612202024
0.1730028833813897	0.4109960590719778
0.17400290004833416	0.4150839685569128
0.1750029167152786	0.41915482945182614
0.17600293338222306	0.42309576060254567
0.1770029500491675	0.4267939599239097
0.17800296671611196	0.4301367043997676
0.1790029833830564	0.4330113500829774
0.18000300005000086	0.43530533209540817
0.1810030167169453	0.43693498860414265
0.18200303338388973	0.43794176634393145
0.1830030500508342	0.4384010838721241
0.18400306671777863	0.43838248641262567
0.1850030833847231	0.43793537705416885
0.18600310005166754	0.4371386991630818
0.187003116718612	0.4360755488471289
0.18800313338555644	0.434829004265937
0.1890031500525009	0.43348212563099686
0.19000316671944534	0.4321179552056618
0.1910031833863898	0.4308006412723995
0.19200320005333424	0.42951206592992075
0.19300321672027868	0.42821169732138975
0.19400323338722314	0.4268589851650286
0.19500325005416758	0.42541336123092327
0.19600326672111204	0.4238342393410224
0.19700328338805648	0.4220810153691382
0.19800330005500094	0.4201130672409457
0.19900331672194538	0.41788975493398317
0.20000333338888984	0.4153704204776522
0.20100335005583428	0.412526059377877
0.20200336672277874	0.40937873830868826
0.20300338338972318	0.40596448468261254
0.20400340005666762	0.40231930877408606
0.20500341672361208	0.3984792029094087
0.20600343339055652	0.3944801414667431
0.20700345005750098	0.3903580808761157
0.20800346672444542	0.3861489596194148
0.20900348339138988	0.3818886982303935
0.21000350005833432	0.3776131992946665
0.21100351672527878	0.3733489066632529
0.21200353339222322	0.36908073750721837
0.21300355005916768	0.36478218641968835
0.21400356672611212	0.36042672972066425
0.21500358339305656	0.3559878257820108
0.21600360006000102	0.35143891502745644
0.21700361672694546	0.346753419932592
0.21800363339388992	0.34190474502487184
0.21900365006083436	0.3368662768836135
0.22000366672777882	0.3316113841399977
0.22100368339472326	0.3261240483267796
0.22200370006166772	0.32043518539140975
0.22300371672861216	0.31458865160856536
0.22400373339555663	0.30862828572750844
0.22500375006250106	0.3025979085493646
0.2260037667294455	0.296541322927122
0.22700378339638996	0.29050231376563285
0.2280038000633344	0.2845246480216118
0.22900381673027886	0.2786520747036368
0.2300038333972233	0.2729283248721491
0.23100385006416777	0.2673871893189789
0.2320038667311122	0.26201841975212165
0.23300388339805667	0.2567995460372091
0.2340039000650011	0.2517080796387985
0.23500391673194554	0.2467215140733099
0.23600393339889	0.24181732490902672
0.23700395006583444	0.23697296976609583
0.2380039667327789	0.23216588831652638
0.23900398339972334	0.22737350228419148
0.2400040000666678	0.22257321544482758
0.24100401673361224	0.21774111675770338
0.2420040334005567	0.21284749756788743
0.24300405006750114	0.20786102178790067
0.2440040667344456	0.2027503353145495
0.24500408340139004	0.19748406609650415
0.24600410006833448	0.19203082413429773
0.24700411673527894	0.1863592014803265
0.24800413340222338	0.18043777223884996
0.24900415006916785	0.17423509256599073
0.2500041667361123	0.16771970066973452
0.25100418340305675	0.16087984580770232
0.2520042000700012	0.1537920817419061
0.2530042167369456	0.1465576502249231
0.2540042334038901	0.13927777622860193
0.25500425007083455	0.13205366677665317
0.256004266737779	0.12498651094465117
0.2570042834047234	0.1181774798600331
0.25800430007166786	0.11172772670209985
0.25900431673861235	0.10573838670201481
0.2600043334055568	0.10031057714280468
0.2610043500725012	0.09551732322089926
0.26200436673944566	0.09130538196312249
0.26300438340639015	0.08758601862836084
0.2640044000733346	0.08427047864996733
0.265004416740279	0.081269989513158
0.26600443340722346	0.07849557231221975
0.2670044500741679	0.07585325318184495
0.2680044667411124	0.07324831862228652
0.2690044834080568	0.07058716954630803
0.27000450007500126	0.06777620869686796
0.2710045167419457	0.06474217497689946
0.2720045334088902	0.06150366682317206
0.27300455007583463	0.058105210549128615
0.27400456674277907	0.05459133582838925
0.2750045834097235	0.051006574164768524
0.276004600076668	0.04739545889227589
0.27700461674361243	0.04380252517511588
0.27800463341055687	0.04027231000768743
0.2790046500775013	0.03684935221458473
0.28000466674444574	0.03357819245059645
0.28100468341139023	0.03049668132174018
0.28200470007833467	0.027612304800473136
0.2830047167452791	0.024923941561676925
0.28400473341222354	0.022430471546236983
0.28500475007916803	0.02013077652523381
0.28600476674611247	0.018023740099942388
0.2870047834130569	0.016108247701832747
0.28800480008000134	0.014383186592569602
0.2890048167469458	0.012847445864012864
0.2900048334138903	0.011499916438216663
0.2910048500808347	0.010333516884903044
0.29200486674777915	0.009313935231600241
0.2930048834147236	0.008399106119430424
0.2940049000816681	0.00754696545747522
0.2950049167486125	0.006715450985010927
0.29600493341555695	0.005862502271508726
0.2970049500825014	0.004946060716634457
0.2980049667494459	0.003924069550248949
0.2990049834163903	0.0027544738324079953
0.30000500008333475	0.0013952204533617969
0.3010050167502792	-0.00018301662614082434
0.3020050334172236	-0.0019512996858188185
0.3030050500841681	-0.003864028841028053
0.30400506675111255	-0.0058756013955646854
0.305005083418057	-0.007940412823030318
0.3060051000850014	-0.010012856766831498
0.3070051167519459	-0.01204732504018017
0.30800513341889035	-0.013998207626093273
0.3090051500858348	-0.0158198926773931
0.3100051667527792	-0.017466766516706936
0.31100518341972366	-0.018902847566077897
0.31200520008666816	-0.020136465655888197
0.3130052167536126	-0.021188681671328424
0.31400523342055703	-0.02208055578535907
0.31500525008750146	-0.022833146340745795
0.31600526675444596	-0.023467509850059368
0.3170052834213904	-0.024004700995675678
0.31800530008833483	-0.024465772629776065
0.31900531675527927	-0.024871775774346763
0.3200053334222237	-0.025243759621179168
0.3210053500891682	-0.02559940133011232
0.32200536675611263	-0.02594080409659663
0.32300538342305707	-0.026265574771460135
0.3240054000900015	-0.026571317943124277
0.325005416756946	-0.026855636369815247
0.32600543342389043	-0.027116130979564675
0.32700545009083487	-0.02735040087020937
0.3280054667577793	-0.027556043309391133
0.3290054834247238	-0.027730653734557176
0.33000550009166824	-0.027871825752959697
0.3310055167586127	-0.027978739054657024
0.3320055334255571	-0.028057941739721648
0.33300555009250155	-0.0281181168433665
0.33400556675944604	-0.028167945795005474
0.3350055834263905	-0.02821610819385743
0.3360056000933349	-0.02827128180894677
0.33700561676027935	-0.028342142579102354
0.33800563342722384	-0.028437364612959166
0.3390056500941683	-0.02856562018895661
0.3400056667611127	-0.028735579755339746
0.34100568342805715	-0.028953020983650584
0.3420057000950016	-0.029210240698998576
0.3430057167619461	-0.029495608593683144
0.3440057334288905	-0.029797492080877137
0.34500575009583495	-0.030104256743558436
0.3460057667627794	-0.030407387629823368
0.3470057834297239	-0.030700346283711613
0.3480058000966683	-0.030968985496095724
0.34900581676361275	-0.031198913678165192
0.3500058334305572	-0.03137572322029759
0.3510058500975017	-0.03148683393799521
0.3520058667644461	-0.031528283630337266
0.35300588343139055	-0.03149861968490636
0.354005900098335	-0.03139637378223499
0.35500591676527943	-0.031220061582043865
0.3560059334322239	-0.03096818272324161
0.35700595009916836	-0.03063922082392511
0.3580059667661128	-0.030231643481379647
0.35900598343305723	-0.02974390227207819
0.3600060001000017	-0.029174432751682227
0.36100601676694616	-0.02852466291353834
0.3620060334338906	-0.027810159086843932
0.36300605010083503	-0.02705063051545621
0.36400606676777947	-0.02626577098228289
0.36500608343472396	-0.02547525824941999
0.3660061001016684	-0.02469875405815159
0.36700611676861283	-0.023955904128949854
0.36800613343555727	-0.023266338161475275
0.36900615010250176	-0.022649669834576298
0.3700061667694462	-0.022125496806289585
0.37100618343639064	-0.02170657095936988
0.37200620010333507	-0.021373349458523185
0.37300621677027956	-0.021096746684776922
0.374006233437224	-0.02084765961188452
0.37500625010416844	-0.020596969192787556
0.3760062667711129	-0.020315540359615594
0.3770062834380573	-0.019974222023686525
0.3780063001050018	-0.019543847075506278
0.37900631677194624	-0.018995232384769
0.3800063334388907	-0.01829917880035694
0.3810063501058351	-0.017432689583568778
0.3820063667727796	-0.01640227475430019
0.38300638343972404	-0.01522318062908175
0.3840064001066685	-0.013910638877676938
0.3850064167736129	-0.012479865149036984
0.38600643344055735	-0.010946059071301409
0.38700645010750184	-0.009324404251797893
0.3880064667744463	-0.0076300682770423485
0.3890064834413907	-0.00587820271273861
0.39000650010833515	-0.004083943103778796
0.39100651677527964	-0.0022584165836919386
0.3920065334422241	-0.000393693902322057
0.3930065501091685	0.00152384012752547
0.39400656677611295	0.00350781767208847
0.3950065834430574	0.005571886918416787
0.3960066001100019	0.007729712074371769
0.3970066167769463	0.009994973368626783
0.39800663344389076	0.012381367050667141
0.3990066501108352	0.014902605390789948
0.4000066667777797	0.01757241668010416
0.4010066834447241	0.020400434335192365
0.40200670011166856	0.023376612462405015
0.403006716778613	0.026485024057901364
0.4040067334455575	0.0297097533687002
0.4050067501125019	0.0330349006027023
0.40600676677944636	0.03644458198861993
0.4070067834463908	0.03992292977597741
0.40800680011333523	0.043454092235111125
0.4090068167802797	0.04702223365716892
0.41000683344722416	0.050611534354110796
0.4110068501141686	0.05421365369418856
0.41200686678111303	0.05785618334828388
0.4130068834480575	0.06157752199973471
0.41400690011500196	0.06541608645390067
0.4150069167819464	0.06941030953695357
0.41600693344889084	0.07359864009587673
0.4170069501158353	0.07801954299846513
0.41800696678277977	0.08271068708512065
0.4190069834497242	0.08770110615611489
0.42000700011666864	0.0930154707586517
0.4210070167836131	0.09866738269482843
0.42200703345055757	0.10461676690952479
0.423007050117502	0.11080732276670147
0.42400706678444644	0.11718270828204694
0.4250070834513909	0.12368654349717578
0.42600710011833537	0.13026241047962947
0.4270071167852798	0.13685385332287567
0.42800713345222424	0.14340437814630852
0.4290071501191687	0.14985745309524923
0.4300071667861131	0.1561565083409452
0.4310071834530576	0.1622534031873463
0.43200720012000204	0.16814107839114237
0.4330072167869465	0.17382490143965815
0.4340072334538909	0.17931020462275554
0.4350072501208354	0.18460228225622285
0.43600726678777985	0.18970639068177508
0.4370072834547243	0.19462774826705367
0.4380073001216687	0.19937153540562658
0.43900731678861316	0.20394289451698835
0.44000733345555765	0.20834693004656016
0.4410073501225021	0.2125911361549004
0.4420073667894465	0.21669481236722365
0.44300738345639096	0.2206808263547674
0.44400740012333545	0.22457200867176727
0.4450074167902799	0.228391151898385
0.4460074334572243	0.23216101064070885
0.44700745012416876	0.23590430153075417
0.44800746679111325	0.2396437032264622
0.4490074834580577	0.24340185641170087
0.4500075001250021	0.24720136379626503
0.45100751679194656	0.2510527196308434
0.452007533458891	0.2549072273659108
0.4530075501258355	0.25869806109820626
0.4540075667927799	0.2623583523697943
0.45500758345972436	0.2658211947486666
0.4560076001266688	0.26901964382874116
0.4570076167936133	0.2718867172298625
0.45800763346055773	0.2743553945978015
0.45900765012750216	0.2763590842361015
0.4600076667944466	0.27783998970260365
0.46100768346139104	0.2787587518450897
0.46200770012833553	0.2791335822991075
0.46300771679527997	0.2790005921747323
0.4640077334622244	0.278396257771646
0.46500775012916884	0.27735741585535584
0.46600776679611333	0.2759212636571934
0.46700778346305777	0.2741253588743145
0.4680078001300022	0.27200761966969983
0.46900781679694664	0.2696063246721543
0.4700078334638911	0.2669601129763074
0.47100785013083557	0.2641042471322001
0.47200786679778	0.2610558695339867
0.47300788346472444	0.2578267804771409
0.4740079001316689	0.25442913909149895
0.47500791679861337	0.2508754649727214
0.4760079334655578	0.24717863818229294
0.47700795013250225	0.2433518992475232
0.4780079667994467	0.23940884916154656
0.4790079834663912	0.23536344938332093
0.4800080001333356	0.23123002183763
0.48100801680028005	0.22701975404056576
0.4820080334672245	0.2227268321374464
0.4830080501341689	0.2183404215713333
0.4840080668011134	0.2138500466179894
0.48500808346805785	0.20924559201900084
0.4860081001350023	0.20451730298177953
0.4870081168019467	0.19965578517956092
0.4880081334688912	0.19465200475140554
0.48900815013583565	0.18949728830219795
0.4900081668027801	0.18418332290264783
0.4910081834697245	0.17870675175534062
0.49200820013666896	0.17308751280693316
0.49300821680361345	0.1673530443718634
0.4940082334705579	0.16153114752605918
0.4950082501375023	0.15564998381127282
0.49600826680444676	0.14973807523508134
0.49700828347139125	0.1438243042708859
0.4980083001383357	0.1379379138579124
0.4990083168052801	0.13210850740121147
0.5000083334722246	0.1263330404976367
0.501008350139169	0.12059939063740749
0.5020083668061135	0.11493175498471606
0.5030083834730579	0.10935074467338947
0.5040084001400024	0.10387517220030566
0.5050084168069469	0.09852204943661036
0.5060084334738912	0.09330658762771693
0.5070084501408357	0.08824219739330766
0.5080084668077802	0.08334048872733216
0.5090084834747246	0.07861127099800852
0.5100085001416691	0.07406255294782274
0.5110085168086135	0.06970131023213326
0.512008533475558	0.0655365831890665
0.5130085501425025	0.0615768255930835
0.5140085668094468	0.057828691029438224
0.5150085834763913	0.054297032457652494
0.5160086001433357	0.05098490221151647
0.5170086168102802	0.04789355199908816
0.5180086334772247	0.04502243290269365
0.5190086501441691	0.04236919537892726
0.5200086668111136	0.03992968925865104
0.5210086834780581	0.03769199837510148
0.5220087001450024	0.03561222753163605
0.5230087168119469	0.03363516004417964
0.5240087334788913	0.03170377498912541
0.5250087501458358	0.029759250817134705
0.5260087668127803	0.027740965353136415
0.5270087834797247	0.025586495796328018
0.5280088001466692	0.0232316187201749
0.5290088168136136	0.02061031007241034
0.530008833480558	0.017654745175035794
0.5310088501475025	0.01430516246546142
0.5320088668144469	0.010550127251827376
0.5330088834813914	0.006392288887875168
0.5340089001483358	0.0018325024594247948
0.5350089168152803	-0.003130177573435585
0.5360089334822248	-0.008498497376349529
0.5370089501491692	-0.014270367263451125
0.5380089668161137	-0.020445363917780655
0.5390089834830581	-0.027030344735077424
0.5400090001500025	-0.034016888531030166
0.541009016816947	-0.041386269644711864
0.5420090334838914	-0.0491315705176179
0.5430090501508359	-0.05723893529728673
0.5440090668177804	-0.06567882083360428
0.5450090834847248	-0.07440599298858301
0.5460091001516693	-0.08335952663636163
0.5470091168186136	-0.09246280566320503
0.5480091334855581	-0.10162352296750483
0.5490091501525026	-0.11073368045977855
0.550009166819447	-0.11966958906267043
0.5510091834863915	-0.1282953235558453
0.552009200153336	-0.13647698580610346
0.5530092168202804	-0.14407065117306656
0.5540092334872249	-0.15091670654157738
0.5550092501541692	-0.1568398478086049
0.5560092668211137	-0.16164907988324465
0.5570092834880582	-0.1651377166867183
0.5580093001550026	-0.16708338115237403
0.5590093168219471	-0.1672480052256862
0.5600093334888915	-0.16537782986425573
0.561009350155836	-0.16125636006732896
0.5620093668227805	-0.1550793912731946
0.5630093834897248	-0.14649032412642335
0.5640094001566693	-0.13503192229543476
0.5650094168236138	-0.12030714203216383
0.5660094334905582	-0.10197913217206184
0.5670094501575027	-0.07977123413409565
0.5680094668244471	-0.05346698192074789
0.5690094834913916	-0.022910102118017257
0.5700095001583361	0.011995486104581683
0.5710095168252804	0.05126824853467919
0.5720095334922249	0.09477628996592855
0.5730095501591693	0.14229843988261556
0.5740095668261138	0.19355332093947103
0.5750095834930583	0.24819936320770916
0.5760096001600027	0.3058348041750292
0.5770096168269472	0.36599768874560734
0.5780096334938916	0.42816586924012373
0.579009650160836	0.4917570053957236
0.5800096668277805	0.5561285643660421
0.5810096834947249	0.6205983600304646
0.5820097001616694	0.684530798761914
0.5830097168286139	0.7472646889426596
0.5840097334955583	0.8080786641529845
0.5850097501625028	0.8661911653896563
0.5860097668294472	0.9208431654918426
0.5870097834963917	0.9712155522192215
0.5880098001633361	1.016463291342067
0.5890098168302805	1.0558618275592027
0.590009833497225	1.0888071803440862
0.5910098501641694	1.1147996805600981
0.5920098668311139	1.1333752930496783
0.5930098834980584	1.1441629179500106
0.5940099001650028	1.1469120152789924
0.5950099168319473	1.141492619829156
0.5960099334988918	1.1278953411676669
0.5970099501658361	1.106231363636322
0.5980099668327806	1.0767324463515546
0.599009983499725	1.03975092320443
0.6000100001666695	0.9957597028606471
0.601010016833614	0.9453602723072166
0.6020100335005584	0.8893166779663394
0.6030100501675029	0.8285272372080995
0.6040100668344472	0.7640108480140924
0.6050100835013917	0.6969069844608632
0.6060101001683362	0.6284631711589366
0.6070101168352806	0.5594125900530577
0.6080101335022251	0.49031022640553845
0.6090101501691695	0.4218346541757849
0.610010166836114	0.3546099434304354
0.6110101835030585	0.2892038926457298
0.6120102001700028	0.22612047937740692
0.6130102168369473	0.1658061187113654
0.6140102335038918	0.10865272003383024
0.6150102501708362	0.05499768883825713
0.6160102668377807	0.005123926725333749
0.6170102835047251	-0.04074016859702128
0.6180103001716696	-0.08242070331365756
0.6190103168386141	-0.11979828750219323
0.6200103335055585	-0.15280803513301533
0.621010350172503	-0.18143974279374842
0.6220103668394473	-0.20573865728216703
0.6230103835063918	-0.22580484131529782
0.6240104001733363	-0.24179286169571124
0.6250104168402807	-0.25391178911874657
0.6260104335072252	-0.26242519817251114
0.6270104501741697	-0.26759814275674265
0.6280104668411141	-0.2693138691763168
0.6290104835080585	-0.26786079188778317
0.6300105001750029	-0.26363202231002086
0.6310105168419474	-0.2570006533381306
0.6320105335088919	-0.24832140138758882
0.6330105501758363	-0.23792925389133351
0.6340105668427808	-0.22613880000778508
0.6350105835097252	-0.21324423018846927
0.6360106001766697	-0.19951933617801706
0.6370106168436142	-0.18521751101416498
0.6380106335105585	-0.1705717490277546
0.639010650177503	-0.155794645842733
0.6400106668444474	-0.1410783983761526
0.6410106835113919	-0.12659483369363353
0.6420107001783364	-0.11249553434186374
0.6430107168452808	-0.09891173544996011
0.6440107335122253	-0.08595427347472123
0.6450107501791698	-0.07371358616605105
0.6460107668461141	-0.06225971256695858
0.6470107835130586	-0.05164229301355827
0.648010800180003	-0.04189056913507031
0.6490108168469475	-0.03301338385381965
0.650010833513892	-0.024999181385236685
0.6510108501808364	-0.01781373051576764
0.6520108668477809	-0.011387899329219544
0.6530108835147252	-0.005559135323988948
0.6540109001816697	-0.0002287957728973871
0.6550109168486142	0.004654045767438275
0.6560109335155586	0.009139243618890474
0.6570109501825031	0.013275579981820704
0.6580109668494476	0.01711076493508031
0.659010983516392	0.020691436436009583
0.6600110001833365	0.024063160320438273
0.6610110168502809	0.027266914160051572
0.6620110335172253	0.030323642352847
0.6630110501841698	0.03324685425749538
0.6640110668511142	0.03604898244414627
0.6650110835180587	0.038741387361439145
0.6660111001850031	0.04133435733650278
0.6670111168519476	0.043837108574955194
0.6680111335188921	0.04625778516090345
0.6690111501858365	0.04860345905694457
0.670011166852781	0.05088013010416468
0.6710111835197254	0.05309371952710058
0.6720112001866698	0.05525445855957763
0.6730112168536143	0.05737332038840259
0.6740112335205587	0.0594602074653276
0.6750112501875032	0.06152395012059437
0.6760112668544477	0.06357230656293376
0.6770112835213921	0.06561196287956621
0.6780113001883366	0.06764853303620133
0.6790113168552809	0.06968655887703828
0.6800113335222254	0.07172951012476539
0.6810113501891699	0.07378209398280827
0.6820113668561143	0.07586051482113967
0.6830113835230588	0.07798416006292198
0.6840114001900032	0.0801713483963027
0.6850114168569477	0.08243932638791893
0.6860114335238922	0.08480426848289654
0.6870114501908365	0.08728127700485161
0.688011466857781	0.08988438215588898
0.6890114835247255	0.0926265420166028
0.6900115001916699	0.09551964254607688
0.6910115168586144	0.09857307323363011
0.6920115335255588	0.10178736427113835
0.6930115501925033	0.10515932589101377
0.6940115668594478	0.10868469401120852
0.6950115835263921	0.11235813242816398
0.6960116001933366	0.11617323281681079
0.697011616860281	0.1201225147305696
0.6980116335272255	0.12419742560134979
0.69901165019417	0.12838834073954986
0.7000116668611144	0.13268456333405867
0.7010116835280589	0.13707207895817175
0.7020117001950034	0.141534757104107
0.7030117168619477	0.14610062351436223
0.7040117335288922	0.15075826326371652
0.7050117501958366	0.1554893971220043
0.7060117668627811	0.1602756220080146
0.7070117835297256	0.16509841098949268
0.70801180019667	0.16993911328313943
0.7090118168636145	0.1747789542546114
0.7100118335305589	0.17959903541852118
0.7110118501975033	0.18438391203458857
0.7120118668644478	0.18913775513692135
0.7130118835313922	0.19387138296236114
0.7140119001983367	0.19859549595847603
0.7150119168652811	0.2033206707217903
0.7160119335322256	0.2080573599977837
0.7170119501991701	0.21281589268089135
0.7180119668661145	0.2176064738145047
0.719011983533059	0.22243918459097062
0.7200120002000034	0.2273239823515918
0.7210120168669478	0.23227077452076197
0.7220120335338923	0.23728975448518033
0.7230120502008367	0.2423911329707452
0.7240120668677812	0.24758499698361072
0.7250120835347257	0.25288130967888683
0.7260121002016701	0.2582899103606391
0.7270121168686146	0.26382051448188887
0.7280121335355589	0.269482713644613
0.7290121502025034	0.2752859755997445
0.7300121668694479	0.28123964424717196
0.7310121835363923	0.28734659221452197
0.7320122002033368	0.29357422286763707
0.7330122168702813	0.2998775850110428
0.7340122335372257	0.3062115917900726
0.7350122502041702	0.31253103249901576
0.7360122668711145	0.3187905725811174
0.737012283538059	0.3249447536285782
0.7380123002050035	0.33094799338255454
0.7390123168719479	0.3367545857331586
0.7400123335388924	0.3423187007194584
0.7410123502058368	0.34760550854684735
0.7420123668727813	0.35264228460865327
0.7430123835397258	0.35747780816172736
0.7440124002066701	0.3621607562774195
0.7450124168736146	0.36673968217603625
0.7460124335405591	0.37126301522683947
0.7470124502075035	0.37577906094804653
0.748012466874448	0.38033695221524094
0.7490124835413924	0.38499630942629376
0.7500125002083369	0.38980793706844213
0.7510125168752814	0.3948069186381285
0.7520125335422257	0.3999592267261487
0.7530125502091702	0.40520686391919025
0.7540125668761146	0.4104920453026502
0.7550125835430591	0.4157572236088018
0.7560126002100036	0.4209450892167925
0.757012616876948	0.42599857015264525
0.7580126335438925	0.43086083208925713
0.7590126502108369	0.4354752783464012
0.7600126668777814	0.4397855498907251
0.7610126835447258	0.44374429089794426
0.7620127002116702	0.44735387189197273
0.7630127168786147	0.450634251777077
0.7640127335455592	0.45360564578704066
0.7650127502125036	0.45628850680252164
0.7660127668794481	0.45870352535105324
0.7670127835463925	0.46087162960704375
0.768012800213337	0.4628139853917765
0.7690128168802814	0.46455199617340937
0.7700128335472258	0.46610730306697573
0.7710128502141703	0.4674980358821017
0.7720128668811147	0.4687212985460021
0.7730128835480592	0.4697669450354568
0.7740129002150037	0.470625058621787
0.7750129168819481	0.4712859602231881
0.7760129335488926	0.4717402084047306
0.777012950215837	0.47197859937836034
0.7780129668827814	0.47199216700289764
0.7790129835497259	0.4717721827840385
0.7800130002166703	0.47131015587435315
0.7810130168836148	0.47060229777517804
0.7820130335505593	0.46967049770076214
0.7830130502175037	0.46854587996394015
0.7840130668844482	0.4672598169167745
0.7850130835513925	0.46584391855820223
0.786013100218337	0.46433003253403654
0.7870131168852815	0.46275024413696403
0.7880131335522259	0.4611368763065472
0.7890131502191704	0.4595224896292239
0.7900131668861148	0.45793988233830607
0.7910131835530593	0.4564120446632261
0.7920132002200038	0.4549046995122707
0.7930132168869481	0.4533633806740904
0.7940132335538926	0.4517338351660732
0.7950132502208371	0.44996204765248227
0.7960132668877815	0.44799424044445524
0.797013283554726	0.44577687350000555
0.7980133002216704	0.4432566444240212
0.7990133168886149	0.44038048846826483
0.8000133335555594	0.4370955785313748
0.8010133502225038	0.43336275208929853
0.8020133668894482	0.4292203013302879
0.8030133835563926	0.4247343172260939
0.8040134002233371	0.4199711701519543
0.8050134168902816	0.4149974675921553
0.806013433557226	0.40987920129692446
0.8070134502241705	0.40466987152659856
0.808013466891115	0.3994328495642227
0.8090134835580594	0.3942363926383357
0.8100135002250038	0.3891486379618113
0.8110135168919482	0.3842247623722099
0.8120135335588927	0.3794456385350419
0.8130135502258372	0.3747654370931486
0.8140135668927816	0.37013817468552684
0.8150135835597261	0.3655177479355087
0.8160136002266705	0.36085793345076217
0.817013616893615	0.35611238782329147
0.8180136335605594	0.35123464762943696
0.8190136502275038	0.34617812942987436
0.8200136668944483	0.34089612976961564
0.8210136835613928	0.33535150875398906
0.8220137002283372	0.32956321146991385
0.8230137168952817	0.3235702904280809
0.8240137335622261	0.3174117048535778
0.8250137502291706	0.31112629395582797
0.826013766896115	0.30475277692859054
0.8270137835630594	0.29832975294996095
0.8280138002300039	0.2918957011823706
0.8290138168969483	0.2854889807725863
0.8300138335638928	0.2791478308517116
0.8310138502308373	0.27290517211080834
0.8320138668977817	0.2667634930331969
0.8330138835647262	0.26071420559541547
0.8340139002316705	0.2547485868008239
0.835013916898615	0.24885779363712018
0.8360139335655595	0.2430328630763368
0.8370139502325039	0.23726471207484287
0.8380139668994484	0.231544137573343
0.8390139835663929	0.22586181649687828
0.8400140002333373	0.22020830575482528
0.8410140169002818	0.21457663444248867
0.8420140335672262	0.20897489689506007
0.8430140502341706	0.2034165801175166
0.8440140669011151	0.19791505887048766
0.8450140835680595	0.19248358789893844
0.846014100235004	0.18713530193217054
0.8470141169019484	0.18188321568382088
0.8480141335688929	0.17674022385186278
0.8490141502358374	0.17171910111860547
0.8500141669027818	0.1668325021506938
0.8510141835697262	0.16209054969069953
0.8520142002366707	0.15748905186585527
0.8530142169036151	0.1530185213152039
0.8540142335705596	0.1486693431312749
0.855014250237504	0.14443178239093382
0.8560142669044485	0.1402959841553814
0.857014283571393	0.13625197347015483
0.8580143002383374	0.13228965536512743
0.8590143169052818	0.1283988148545082
0.8600143335722262	0.12456911693684211
0.8610143502391707	0.12079144309398235
0.8620143669061152	0.11706445686942478
0.8630143835730596	0.11339020846570418
0.8640144002400041	0.10977546250988018
0.8650144169069485	0.10622124045535385
0.866014433573893	0.1027268960578423
0.8670144502408375	0.0992917845235199
0.8680144669077818	0.09591526250901869
0.8690144835747263	0.09259668812142854
0.8700145002416708	0.08933542091829667
0.8710145169086152	0.08613083349416423
0.8720145335755597	0.08298236871771193
0.8730145502425041	0.07988949622043695
0.8740145669094486	0.07685168712348875
0.8750145835763931	0.07386841399847424
0.8760146002433374	0.07093915086745825
0.8770146169102819	0.06806337320296292
0.8780146335772263	0.06524055792796794
0.8790146502441708	0.062470183415911144
0.8800146669111153	0.05975172949068724
0.8810146835780597	0.057086748549154874
0.8820147002450042	0.05448915399894193
0.8830147169119487	0.051977426108821806
0.884014733578893	0.049570053886197285
0.8850147502458375	0.04728552778892855
0.8860147669127819	0.04514233972533362
0.8870147835797264	0.04315898305418792
0.8880148002466709	0.04135395258472481
0.8890148169136153	0.03974574457663478
0.8900148335805598	0.03835285674006626
0.8910148502475042	0.03718686644027715
0.8920148669144486	0.03621785419351101
0.8930148835813931	0.03540050667129155
0.8940149002483375	0.03468948666721683
0.895014916915282	0.03403945842534175
0.8960149335822265	0.03340508764017953
0.8970149502491709	0.03274104145670094
0.8980149669161154	0.032001988470333705
0.8990149835830598	0.031142598726963764
0.9000150002500042	0.03011754372293451
0.9010150169169487	0.028891887630271024
0.9020150335838931	0.027493282889588452
0.9030150502508376	0.025972668794445875
0.904015066917782	0.024380991981199987
0.9050150835847265	0.022769199158895106
0.906015100251671	0.021188238487033592
0.9070151169186154	0.019689059575575096
0.9080151335855599	0.018322613484936766
0.9090151502525042	0.01713985272599357
0.9100151669194487	0.016191731260077957
0.9110151835863932	0.015520588183268446
0.9120152002533376	0.01511662465854554
0.9130152169202821	0.014950532200495732
0.9140152335872266	0.01499296971891637
0.915015250254171	0.015214597574062488
0.9160152669211155	0.015586077576646686
0.9170152835880598	0.0160780729878392
0.9180153002550043	0.01666124851926768
0.9190153169219488	0.017306270333017716
0.9200153335888932	0.017983806041632182
0.9210153502558377	0.01866619502655955
0.9220153669227821	0.0193359327011854
0.9230153835897266	0.019979332339927873
0.9240154002566711	0.02058271552517625
0.9250154169236154	0.02113240528977743
0.9260154335905599	0.021614726117035424
0.9270154502575044	0.022016003940712504
0.9280154669244488	0.022322566145028346
0.9290154835913933	0.022520741564659996
0.9300155002583377	0.022596860484742437
0.9310155169252822	0.02254124809739968
0.9320155335922267	0.022368622156677245
0.933015550259171	0.022102908496296807
0.9340155669261155	0.021768051424819107
0.9350155835930599	0.021388519338652986
0.9360156002600044	0.02099159366915913
0.9370156169269489	0.02060243845616152
0.9380156335938933	0.02024582215073681
0.9390156502608378	0.019946590767044445
0.9400156669277822	0.019729667882327367
0.9410156835947266	0.01961614747555465
0.9420157002616711	0.019603225720529194
0.9430157169286155	0.019679087500212734
0.94401573359556	0.019831977970769018
0.9450157502625045	0.02005021985144517
0.9460157669294489	0.020322213424571002
0.9470157835963934	0.020636436535559476
0.9480158002633378	0.020981444592906892
0.9490158169302823	0.02134587056819235
0.9500158335972267	0.021718424996078164
0.9510158502641711	0.022089068311922415
0.9520158669311156	0.022455065869326545
0.95301588359806	0.022816512257721057
0.9540159002650045	0.023173585012914426
0.955015916931949	0.02352653923379814
0.9560159335988934	0.023875707582346913
0.9570159502658379	0.024221500283618167
0.9580159669327823	0.02456440512575294
0.9590159835997267	0.02490498745997489
0.9600160002666712	0.025243890200590847
0.9610160169336156	0.025581351391147988
0.9620160336005601	0.0259146985825864
0.9630160502675046	0.026240194330565257
0.964016066934449	0.026554176455786435
0.9650160836013935	0.026853060342035016
0.9660161002683378	0.027133338936178867
0.9670161169352823	0.027391582748169357
0.9680161336022268	0.027624439851040523
0.9690161502691712	0.027828635880909773
0.9700161669361157	0.028000974036977565
0.9710161836030601	0.028142297064251934
0.9720162002700046	0.028278179373653605
0.9730162169369491	0.02844374075940245
0.9740162336038934	0.028674198150093793
0.9750162502708379	0.029004846037405902
0.9760162669377824	0.029471056476100047
0.9770162836047268	0.030108279084020837
0.9780163002716713	0.030952041042095785
0.9790163169386157	0.03203794709433551
0.9800163336055602	0.033401679547833726
0.9810163502725047	0.035070232558318676
0.982016366939449	0.03701587650861174
0.9830163836063935	0.03918982339280589
0.9840164002733379	0.04154331787836423
0.9850164169402824	0.04402768219583366
0.9860164336072269	0.04659431613884362
0.9870164502741713	0.04919469706410705
0.9880164669411158	0.0517803798914194
0.9890164836080603	0.054302997103659725
0.9900165002750047	0.05671425874679
0.9910165169419491	0.05897640883151302
0.9920165336088935	0.06111744615744719
0.993016550275838	0.06319088691112285
0.9940165669427825	0.06525038033828402
0.9950165836097269	0.06734965324775724
0.9960166002766714	0.06954251001145288
0.9970166169436158	0.07188283256436408
0.9980166336105603	0.0744245804045669
0.9990166502775047	0.07722179059322062
1.0000166669444492	0.08032857775456768
1.0010166836113936	0.08378948550330388
1.002016700278338	0.08758788771398653
1.0030167169452826	0.09167865399664915
1.004016733612227	0.09601519588196328
1.0050167502791714	0.10055095958456418
1.0060167669461157	0.10523899747996106
1.0070167836130604	0.11003197063460493
1.0080168002800047	0.11488214884703352
1.0090168169469491	0.11974141064787887
1.0100168336138937	0.1245612432998594
1.011016850280838	0.1293007916756738
1.0120168669477825	0.13396983989151995
1.013016883614727	0.13859771793313008
1.0140169002816715	0.14321341036138655
1.0150169169486158	0.14784551046926706
1.0160169336155604	0.15252222028183474
1.0170169502825048	0.15727135055624825
1.0180169669494492	0.16212032078175176
1.0190169836163936	0.16709615917968476
1.0200170002833382	0.1722255027034722
1.0210170169502826	0.17752978717268586
1.022017033617227	0.18299941910370995
1.0230170502841716	0.18861239224280588
1.024017066951116	0.19434628070131862
1.0250170836180603	0.20017826732268798
1.026017100285005	0.20608514368244368
1.0270171169519493	0.2120433100882024
1.0280171336188937	0.21802877557967645
1.0290171502858383	0.22401715792866309
1.0300171669527827	0.22998368363905541
1.031017183619727	0.23590426596614397
1.0320172002866714	0.2417613259492972
1.033017216953616	0.247539611995346
1.0340172336205604	0.25322348782476417
1.0350172502875048	0.2587969258901111
1.0360172669544494	0.264243507376041
1.0370172836213938	0.2695464221992944
1.0380173002883382	0.2746884690087066
1.0390173169552828	0.2796520551851989
1.0400173336222271	0.28441919684178735
1.0410173502891715	0.28897162002112237
1.0420173669561161	0.29329131018085813
1.0430173836230605	0.2973601190203412
1.044017400290005	0.3011595076104146
1.0450174169569493	0.30467054934314525
1.0460174336238939	0.3078806722358827
1.0470174502908383	0.310784738381797
1.0480174669577826	0.3133759049588479
1.0490174836247272	0.31564797870529093
1.0500175002916716	0.31759541591968304
1.051017516958616	0.319215548428702
1.0520175336255606	0.32052073753836186
1.053017550292505	0.3215297094505546
1.0540175669594494	0.3222618544790002
1.055017583626394	0.32273721249771586
1.0560176002933384	0.3229764729410179
1.0570176169602827	0.32300097480352075
1.0580176336272271	0.32283270664013736
1.0590176502941717	0.3224943065660793
1.060017666961116	0.32200906225685627
1.0610176836280605	0.3213934061988928
1.062017700295005	0.3206157109547483
1.0630177169619495	0.3196255558451584
1.0640177336288938	0.3183731190056248
1.0650177502958385	0.31680922813194945
1.0660177669627828	0.3148853604802306
1.0670177836297272	0.312553642866867
1.0680178002966716	0.30976685166855333
1.0690178169636162	0.3064784128222858
1.0700178336305606	0.30264240182535573
1.071017850297505	0.2982264945975609
1.0720178669644496	0.29328347007856187
1.073017883631394	0.2879006116713248
1.0740179002983383	0.28216594289576785
1.075017916965283	0.2761681368321107
1.0760179336322273	0.26999651612086745
1.0770179502991717	0.2637410529628552
1.0780179669661163	0.2574923691191854
1.0790179836330607	0.2513417359112717
1.080018000300005	0.24538107422082178
1.0810180169669494	0.23968783097128407
1.082018033633894	0.2342410160990286
1.0830180503008384	0.22898039796501327
1.0840180669677828	0.22384628516410648
1.0850180836347274	0.21877963585147928
1.0860181003016718	0.21372205774259667
1.0870181169686162	0.20861580811322666
1.0880181336355608	0.20340379379943133
1.0890181503025052	0.19801681386486053
1.0900181669694495	0.192353837102349
1.0910181836363941	0.1863666886339873
1.0920182003033385	0.1801090443632533
1.093018216970283	0.17367358084415582
1.0940182336372273	0.16715186553351183
1.0950182503041719	0.1606342438734653
1.0960182669711163	0.1542098392914783
1.0970182836380606	0.14796655320033963
1.0980183003050052	0.1419910649981565
1.0990183169719496	0.1363688320683631
1.100018333638894	0.1311840897797113
1.1010183503058386	0.12650691151125285
1.102018366972783	0.1223205657492285
1.1030183836397274	0.11857232957388739
1.104018400306672	0.11520811355005228
1.1050184169736164	0.11217259983627867
1.1060184336405607	0.10940924857644008
1.1070184503075051	0.10686029789973679
1.1080184669744497	0.10446676392068824
1.109018483641394	0.10216844073913953
1.1100185003083385	0.09990390044025493
1.111018516975283	0.09761540472112439
1.1120185336422275	0.09527663149572915
1.1130185503091719	0.09287334591691392
1.1140185669761165	0.09039013029809545
1.1150185836430608	0.08781034493801564
1.1160186003100052	0.08511612812073595
1.1170186169769498	0.08228839611564313
1.1180186336438942	0.07930684317744385
1.1190186503108386	0.07614994154616993
1.120018666977783	0.07279494144717294
1.1210186836447276	0.06922370809715872
1.122018700311672	0.06545585567887738
1.1230187169786163	0.061525735926900894
1.124018733645561	0.057467463910669536
1.1250187503125053	0.05338792921369004
1.1260187669794497	0.0492988531814086
1.1270187836463943	0.04514743809133663
1.1280188003133387	0.04089483620181706
1.129018816980283	0.03651614975203142
1.1300188336472277	0.0320004309619917
1.131018850314172	0.02733927188679688
1.1320188669811164	0.022461673576589382
1.1330188836480608	0.017279107748236447
1.1340189003150054	0.011716899038855897
1.1350189169819498	0.00571432206640558
1.1360189336488942	-0.000775398570327661
1.1370189503158388	-0.0077850882917164495
1.1380189669827832	-0.015333622537304803
1.1390189836497275	-0.023425926765794854
1.1400190003166721	-0.03205297645506185
1.1410190169836165	-0.041181279939076054
1.142019033650561	-0.05069251048032499
1.1430190503175053	-0.06042511370182322
1.1440190669844499	-0.07020349288546372
1.1450190836513943	-0.0798381013322963
1.1460191003183386	-0.08912544236254445
1.1470191169852832	-0.09784806931558877
1.1480191336522276	-0.10577458554998287
1.149019150319172	-0.11277627024038818
1.1500191669861166	-0.11873991721258631
1.151019183653061	-0.1232366373425187
1.1520192003200054	-0.12590258352750747
1.15301921698695	-0.1264233140299785
1.1540192336538944	-0.12451534864794578
1.1550192503208387	-0.11992610900617903
1.1560192669877831	-0.11243391855620904
1.1570192836547277	-0.1018480025763189
1.158019300321672	-0.08800848817155751
1.1590193169886165	-0.07078640427372089
1.160019333655561	-0.05008368164137641
1.1610193503225055	-0.0258316129018447
1.1620193669894499	0.002018085466745206
1.1630193836563945	0.03348715987213384
1.1640194003233388	0.0685664692991545
1.1650194169902832	0.10721597090591231
1.1660194336572278	0.14936472002372156
1.1670194503241722	0.19491087015717512
1.1680194669911166	0.24372167298406874
1.169019483658061	0.29563347835548237
1.1700195003250056	0.3504517342956935
1.17101951699195	0.4079560825329066
1.1720195336588943	0.46793009804578045
1.173019550325839	0.5302054875450076
1.1740195669927833	0.5946282639034929
1.1750195836597277	0.6601327340275135
1.1760196003266723	0.7255969637250883
1.1770196169936167	0.7899791649621861
1.178019633660561	0.8523176958626092
1.1790196503275057	0.9117310607081069
1.18001966699445	0.967417909938267
1.1810196836613944	1.0186435469768487
1.1820197003283388	1.0646607379651758
1.1830197169952834	1.1047634573184766
1.1840197336622278	1.1383256913029467
1.1850197503291722	1.1648015723427039
1.1860197669961168	1.1837253790197328
1.1870197836630612	1.1947115360739287
1.1880198003300055	1.1974546144030631
1.1890198169969501	1.191729331062808
1.1900198336638945	1.177390549266725
1.191019850330839	1.1543931736791022
1.1920198669977835	1.1229095647193423
1.1930198836647279	1.0832423457884706
1.1940199003316723	1.0361467122708483
1.1950199169986166	0.9827982658064423
1.1960199336655613	0.924334770173273
1.1970199503325056	0.8618422565963793
1.19801996699945	0.7963550237479183
1.1990199836663946	0.7288556377470606
1.200020000333339	0.6602749321600995
1.2010200170002834	0.5914717872456761
1.202020033667228	0.5231131299508991
1.2030200503341724	0.4557547511717386
1.2040200670011167	0.38990052521178814
1.2050200836680613	0.32600260263887654
1.2060201003350057	0.26446140809443747
1.20702011700195	0.20562563529062225
1.2080201336688945	0.14979224538670488
1.209020150335839	0.09720646698897327
1.2100201670027835	0.04806179615083192
1.2110201836697279	0.002516269498108751
1.2120202003366725	-0.03921042478303861
1.2130202170036168	-0.07684036933279538
1.2140202336705612	-0.11025930887730184
1.2150202503375058	-0.1395226588731378
1.2160202670044502	-0.16469595409764792
1.2170202836713946	-0.18585456412153498
1.218020300338339	-0.20308369330881673
1.2190203170052836	-0.21647838081686158
1.220020333672228	-0.22614350059636007
1.2210203503391723	-0.23220556858026054
1.222020367006117	-0.23488359559712105
1.2230203836730613	-0.23444174847283594
1.2240204003400057	-0.2311541615964708
1.2250204170069503	-0.22530480415042448
1.2260204336738947	-0.21718748011043426
1.227020450340839	-0.20710582824556678
1.2280204670077837	-0.19537332211823039
1.229020483674728	-0.18231327008415943
1.2300205003416724	-0.16825881529243297
1.2310205170086168	-0.15354476832173455
1.2320205336755614	-0.13845832303559474
1.2330205503425058	-0.12327185449226179
1.2340205670094502	-0.10826747790536234
1.2350205836763948	-0.0937371432818446
1.2360206003433392	-0.079870237697601
1.2370206170102835	-0.06664541330789642
1.2380206336772281	-0.05405972693227813
1.2390206503441725	-0.04210371101121601
1.240020667011117	-0.030761221024049778
1.2410206836780615	-0.020015645636533068
1.242020700345006	-0.009887589376386206
1.2430207170119503	-0.00040989499202039384
1.2440207336788947	0.008391197592401404
1.2450207503458393	0.016496125413865546
1.2460207670127836	0.02389200247049264
1.247020783679728	0.030572619721550846
1.2480208003466726	0.03653844508744401
1.249020817013617	0.0417966234497229
1.2500208336805614	0.046360976651074325
1.251020850347506	0.05025617779511054
1.2520208670144504	0.053543221795652726
1.2530208836813947	0.05630260983389777
1.2540209003483394	0.05862157138376063
1.2550209170152837	0.06059401288029993
1.2560209336822281	0.062320517719713676
1.2570209503491725	0.0638979794594425
1.258020967016117	0.06533368101194686
1.2590209836830615	0.0666473446537481
1.2600210003500059	0.06786917344616375
1.2610210170169505	0.06902975287440381
1.2620210336838948	0.07016766177560471
1.2630210503508392	0.07132446778781015
1.2640210670177838	0.07254089626543593
1.2650210836847282	0.07385681456991997
1.2660211003516726	0.0753112320697192
1.2670211170186172	0.0769423001403127
1.2680211336855616	0.07878731216419842
1.269021150352506	0.08088270353089663
1.2700211670194503	0.08326405163694661
1.271021183686395	0.08595859233539364
1.2720212003533393	0.08893904637596702
1.2730212170202837	0.09215385842580366
1.2740212336872283	0.09555051756792762
1.2750212503541727	0.09907565489238593
1.276021267021117	0.10267504349624382
1.2770212836880617	0.10629359848358977
1.278021300355006	0.10987537696552957
1.2790213170219504	0.11336357806019312
1.2800213336888948	0.11670054289272774
1.2810213503558394	0.11983657274034537
1.2820213670227838	0.12278464058992353
1.2830213836897282	0.12558525017746075
1.2840214003566728	0.1282881250467691
1.2850214170236172	0.13094089580886037
1.2860214336905615	0.13358853659044612
1.2870214503575061	0.13627587947055794
1.2880214670244505	0.13904761448055192
1.289021483691395	0.14194828960410513
1.2900215003583395	0.14502231077721903
1.291021517025284	0.1483085837937537
1.2920215336922283	0.15180708488275085
1.2930215503591727	0.15550057633371867
1.2940215670261173	0.1593716043411572
1.2950215836930616	0.1634025730518852
1.296021600360006	0.1675757445650474
1.2970216170269506	0.17187323893210782
1.298021633693895	0.17627703415685694
1.2990216503608394	0.18076896619540386
1.300021667027784	0.18533072895618397
1.3010216836947284	0.1899457628081049
1.3020217003616728	0.194611102840223
1.3030217170286174	0.19932970969893618
1.3040217336955617	0.20410440356681725
1.3050217503625061	0.2089378527865859
1.3060217670294505	0.21383258363190655
1.307021783696395	0.21879098032876157
1.3080218003633395	0.22381528505546025
1.3090218170302839	0.22890759794263044
1.3100218336972285	0.23406987707322696
1.3110218503641728	0.23930326679216027
1.3120218670311172	0.24460386008101173
1.3130218836980618	0.24996542880274353
1.3140219003650062	0.2553815929422852
1.3150219170319506	0.2608458304368846
1.3160219336988952	0.2663514771761164
1.3170219503658396	0.27189172700187353
1.318021967032784	0.27745963170837656
1.3190219836997283	0.2830481010421631
1.320022000366673	0.28864990270209895
1.3210220170336173	0.294257865504616
1.3220220337005617	0.2998661682894991
1.3230220503675063	0.3054705789617627
1.3240220670344507	0.31107796139138466
1.325022083701395	0.3166839539034122
1.3260221003683397	0.3222801391517469
1.327022117035284	0.3278582261523856
1.3280221337022284	0.33341005028342974
1.329022150369173	0.3389275732850752
1.3300221670361174	0.3444028832596233
1.3310221837030618	0.34982962736119405
1.3320222003700062	0.35521215172433174
1.3330222170369508	0.3605596613278117
1.3340222337038952	0.36588150970306765
1.3350222503708395	0.3711871767436282
1.3360222670377842	0.3764862687051261
1.3370222837047285	0.3817885182052892
1.338022300371673	0.3871037842239501
1.3390223170386175	0.39244205210303656
1.340022333705562	0.3978134335465806
1.3410223503725063	0.40322423741944863
1.3420223670394509	0.4086517631356255
1.3430223837063953	0.4140603398334323
1.3440224003733396	0.4194143604205626
1.345022417040284	0.4246783441668046
1.3460224337072286	0.4298169367040512
1.347022450374173	0.4347949100262906
1.3480224670411174	0.4395771624896149
1.349022483708062	0.44412871881221216
1.3500225003750064	0.44841473007437394
1.3510225170419508	0.452405929893601
1.3520225337088954	0.45611383248188014
1.3530225503758397	0.4595684295729546
1.3540225670427841	0.46279992864334374
1.3550225837097285	0.46583866353166337
1.356022600376673	0.4687150944386327
1.3570226170436175	0.47145980792706693
1.3580226337105619	0.4741035169218842
1.3590226503775065	0.47667706071010035
1.3600226670444509	0.4792114049408328
1.3610226837113952	0.48173270700092174
1.3620227003783398	0.4842303045630253
1.3630227170452842	0.48667691416228337
1.3640227337122286	0.489045295581165
1.3650227503791732	0.49130833496423676
1.3660227670461176	0.49343904481816653
1.367022783713062	0.49541056401172107
1.3680228003800063	0.49719615777576764
1.369022817046951	0.49876921770327254
1.3700228337138953	0.5001032617493021
1.3710228503808397	0.5011749642885696
1.3720228670477843	0.501983922340663
1.3730228837147287	0.5025402362063418
1.374022900381673	0.5028541850144715
1.3750229170486177	0.5029361742560162
1.376022933715562	0.5027967357840399
1.3770229503825064	0.5024465278137069
1.378022967049451	0.5018963349222809
1.3790229837163954	0.5011570680491254
1.3800230003833398	0.5002360674397401
1.3810230170502842	0.4991236547261591
1.3820230337172288	0.4978170150913387
1.3830230503841732	0.49631020913776924
1.3840230670511176	0.4945972207146087
1.3850230837180622	0.49267199168556725
1.3860231003850065	0.49052842192890567
1.387023117051951	0.4881603693374373
1.3880231337188955	0.48556164981852534
1.38902315038584	0.48272603729408575
1.3900231670527843	0.47964726370058447
1.3910231837197289	0.476322177198791
1.3920232003866733	0.47277157553068605
1.3930232170536176	0.4690272274366446
1.394023233720562	0.4651209174387163
1.3950232503875066	0.4610843880735059
1.396023267054451	0.4569493398921658
1.3970232837213954	0.45274743146040336
1.39802330038834	0.4485102793584741
1.3990233170552844	0.44426945818118824
1.4000233337222288	0.4400565005379034
1.4010233503891734	0.4358974120434076
1.4020233670561177	0.43177628655709427
1.4030233837230621	0.42765787804016614
1.4040234003900067	0.4235068223009322
1.405023417056951	0.41928772959910593
1.4060234337238955	0.41496516552661433
1.4070234503908399	0.4105036492571093
1.4080234670577845	0.4058676576081701
1.4090234837247289	0.40102162541192626
1.4100235003916732	0.39592994551506233
1.4110235170586178	0.39056319915680326
1.4120235337255622	0.3849397165174606
1.4130235503925066	0.3790999080382109
1.4140235670594512	0.37308426248869647
1.4150235837263956	0.3669332266531067
1.41602360039334	0.3606872053301866
1.4170236170602846	0.3543865613332277
1.418023633727229	0.3480716154900786
1.4190236503941733	0.3417826466431334
1.4200236670611177	0.33555989164934347
1.4210236837280623	0.3294393048267557
1.4220237003950067	0.3234241123630222
1.423023717061951	0.3175023047290192
1.4240237337288957	0.31166174628749926
1.42502375039584	0.3058902594157606
1.4260237670627844	0.30017562450565893
1.427023783729729	0.2945055799635959
1.4280238003966734	0.28886782221052903
1.4290238170636178	0.28325000568196296
1.4300238337305622	0.2776397428279583
1.4310238503975068	0.272026559732472
1.4320238670644512	0.2664150878866704
1.4330238837313956	0.26081698736659054
1.4340239003983402	0.25524391611060415
1.4350239170652845	0.24970749007162985
1.436023933732229	0.24421928321714262
1.4370239503991735	0.23879082752916353
1.438023967066118	0.23343361300427035
1.4390239837330623	0.22815908765358722
1.4400240004000069	0.2229786575027945
1.4410240170669513	0.21790174853916888
1.4420240337338956	0.2129226601609056
1.44302405040084	0.20802857903618288
1.4440240670677846	0.20320660929168
1.445024083734729	0.19844381306862255
1.4460241004016734	0.19372721052279257
1.447024117068618	0.18904377982451886
1.4480241337355624	0.18438045715868573
1.4490241504025068	0.17972413672472484
1.4500241670694514	0.1750616707366235
1.4510241837363957	0.17038258976081838
1.4520242004033401	0.16569765926855853
1.4530242170702847	0.16102761779155364
1.454024233737229	0.1563929568730254
1.4550242504041735	0.1518097430379899
1.4560242670711179	0.14729427270097567
1.4570242837380625	0.14286371112408475
1.4580243004050069	0.13853520454073529
1.4590243170719512	0.13432588015565364
1.4600243337388958	0.13025284614488034
1.4610243504058402	0.12633136812313947
1.4620243670727846	0.12256236029947133
1.4630243837397292	0.11893994338260377
1.4640244004066736	0.11545817882065103
1.465024417073618	0.11211110903303578
1.4660244337405626	0.10889275741049562
1.467024450407507	0.10579712831507632
1.4680244670744513	0.10281820708013864
1.4690244837413957	0.09994996001035172
1.4700245004083403	0.09718633438169921
1.4710245170752847	0.09452169609083733
1.472024533742229	0.09195384863449535
1.4730245504091737	0.08948221715067917
1.474024567076118	0.08710621766118773
1.4750245837430624	0.08482524715913028
1.476024600410007	0.08263868360892894
1.4770246170769514	0.08054588594631586
1.4780246337438958	0.07854619407833674
1.4790246504108404	0.07663892888334671
1.4800246670777848	0.07482339221101456
1.4810246837447292	0.07309740678841847
1.4820247004116736	0.0714471877035119
1.4830247170786182	0.06985340757082295
1.4840247337455625	0.06829668603086192
1.485024750412507	0.06675762369544821
1.4860247670794515	0.065216802147715
1.487024783746396	0.06365478394210532
1.4880248004133403	0.06205211260437523
1.489024817080285	0.06038931263159106
1.4900248337472293	0.05864688949213191
1.4910248504141737	0.056809931621735754
1.4920248670811183	0.054900213269943224
1.4930248837480626	0.052957057201731994
1.494024900415007	0.05101987696142703
1.4950249170819514	0.049128067064664736
1.496024933748896	0.04732100299839393
1.4970249504158404	0.045638041220873636
1.4980249670827848	0.04411851916167565
1.4990249837497294	0.04280175522168278
1.5000250004166737	0.041727048773089644
1.5010250170836181	0.04092770254227105
1.5020250337505627	0.04038908934220498
1.5030250504175071	0.040073534646063384
1.5040250670844515	0.0399431627599426
1.5050250837513959	0.03996004508780323
1.5060251004183405	0.040086232672412236
1.5070251170852849	0.04028375752784737
1.5080251337522292	0.04051463263949906
1.5090251504191738	0.040740851964068577
1.5100251670861182	0.04092439042956881
1.5110251837530626	0.041030738464055104
1.5120252004200072	0.04105383625828029
1.5130252170869516	0.04100134449083976
1.514025233753896	0.040880993616339255
1.5150252504208406	0.040700495060695875
1.516025267087785	0.04046754122113874
1.5170252837547293	0.04019038360838696
1.5180253004216737	0.03988423903504304
1.5190253170886183	0.03955918977760622
1.5200253337555627	0.03922308167332675
1.521025350422507	0.03888387917449482
1.5220253670894517	0.038549903392820085
1.523025383756396	0.038229692124594955
1.5240254004233404	0.037931869091091724
1.525025417090285	0.03766514307361152
1.5260254337572294	0.037438307913484806
1.5270254504241738	0.03726024251207061
1.5280254670911184	0.03713991083075733
1.5290254837580628	0.03708636189096252
1.5300255004250072	0.037108729774132314
1.5310255170919516	0.037214306980612885
1.5320255337588962	0.03739479964197084
1.5330255504258405	0.037634372519345656
1.534025567092785	0.03791722448758528
1.5350255837597295	0.038227639481566676
1.536025600426674	0.03854998649619591
1.5370256170936183	0.038868719586408085
1.538025633760563	0.03916837786716709
1.5390256504275073	0.039433585513466034
1.5400256670944517	0.039649051760327125
1.5410256837613963	0.03980194333390631
1.5420257004283406	0.03989890480844065
1.543025717095285	0.039956142503715465
1.5440257337622294	0.039990012147231704
1.545025750429174	0.04001695452651953
1.5460257670961184	0.04005349548913776
1.5470257837630628	0.0401162459426743
1.5480258004300074	0.04022190185474646
1.5490258170969518	0.04038724425299998
1.5500258337638961	0.04062913922511012
1.5510258504308407	0.040962842869494656
1.5520258670977851	0.04138977214077136
1.5530258837647295	0.041904596406456884
1.554025900431674	0.04250202294221794
1.5550259170986185	0.04317684408374961
1.5560259337655629	0.04392393722677654
1.5570259504325072	0.04473826482705196
1.5580259670994518	0.045614874400358364
1.5590259837663962	0.04654889852250743
1.5600260004333406	0.047535554829339625
1.5610260171002852	0.04856897889583815
1.5620260337672296	0.049633756443338735
1.563026050434174	0.050709810722751054
1.5640260671011186	0.05177711675142539
1.565026083768063	0.052815734606740106
1.5660261004350073	0.053805809426103385
1.567026117101952	0.054727571406951864
1.5680261337688963	0.05556133580675171
1.5690261504358407	0.056287502942997614
1.570026167102785	0.05688655819321372
1.5710261837697297	0.0573434158324364
1.572026200436674	0.05767911248091571
1.5730262171036185	0.057932600676147056
1.574026233770563	0.05814304507245297
1.5750262504375074	0.05834969538418343
1.5760262671044518	0.058591886385719154
1.5770262837713964	0.05890883971792372
1.5780263004383408	0.05932769179886119
1.5790263171052852	0.05988444151559121
1.5800263337722296	0.0606236017500869
1.5810263504391742	0.06158610347879644
1.5820263671061185	0.06278641003848714
1.583026383773063	0.0642256016254209
1.5840264004400075	0.06590420207072044
1.585026417106952	0.06782227237709108
1.5860264337738963	0.06997941071882513
1.587026450440841	0.07237475244179727
1.5880264671077853	0.07500697006346894
1.5890264837747297	0.07787427327288439
1.5900265004416743	0.08097440893067451
1.5910265171086186	0.08430273417597524
1.592026533775563	0.08783799836169096
1.5930265504425074	0.09155043322129165
1.594026567109452	0.09540974842212867
1.5950265837763964	0.09938519080313499
1.5960266004433408	0.1034455443748313
1.5970266171102854	0.1075591303193204
1.5980266337772298	0.11169380699029184
1.5990266504441741	0.1158169699130179
1.6000266671111187	0.11989555178435783
1.6010266837780631	0.1239012312072551
1.6020267004450075	0.12784908367568407
1.603026717111952	0.1317756952897162
1.6040267337788965	0.13571739959812457
1.6050267504458409	0.13971013471976632
1.6060267671127852	0.14378938159112312
1.6070267837797299	0.1479901617429605
1.6080268004466742	0.15234703603378405
1.6090268171136186	0.1568941025273476
1.6100268337805632	0.16166499645899468
1.6110268504475076	0.16668762152570196
1.612026867114452	0.1719448329672894
1.6130268837813966	0.1773965944399034
1.614026900448341	0.1830022366043129
1.6150269171152853	0.18872062729286737
1.61602693378223	0.19451017150950503
1.6170269504491743	0.20032881142974462
1.6180269671161187	0.20613402640069423
1.619026983783063	0.21188283294104132
1.6200270004500077	0.21753178474106372
1.621027017116952	0.22304159786763436
1.6220270337838965	0.22841186074792186
1.623027050450841	0.23366156845480923
1.6240270671177854	0.23880941574746947
1.6250270837847298	0.2438890800388802
1.6260271004516744	0.24892638111142437
1.6270271171186188	0.25393079904773036
1.6280271337855632	0.2589126394309397
1.6290271504525078	0.2638830333446953
1.6300271671194522	0.2688539373731539
1.6310271837863966	0.27383440892181327
1.632027200453341	0.2788024961460301
1.6330272171202855	0.2837209253840627
1.63402723378723	0.28855312214380524
1.6350272504541743	0.29326333743365535
1.636027267121119	0.2978166477625222
1.6370272837880633	0.30217895513981885
1.6380273004550077	0.3063169870754693
1.6390273171219523	0.31019829657990167
1.6400273337888966	0.31379126216405523
1.641027350455841	0.3170671316384591
1.6420273671227856	0.3200155339202151
1.64302738378973	0.32263586486776136
1.6440274004566744	0.32492841686607105
1.6450274171236188	0.32689430780062206
1.6460274337905634	0.3285354810574027
1.6470274504575078	0.3298547055229062
1.6480274671244521	0.3308555755841353
1.6490274837913967	0.3315425111285993
1.6500275004583411	0.3319207575443154
1.6510275171252855	0.3319964790444653
1.65202753379223	0.33177747098419014
1.6530275504591745	0.33127276624566676
1.6540275671261189	0.33049222653427895
1.6550275837930633	0.32944653905591864
1.6560276004600079	0.32814721651698453
1.6570276171269522	0.3266065971243838
1.6580276337938966	0.32483784458552994
1.6590276504608412	0.32285494810834564
1.6600276671277856	0.32067272240125905
1.66102768379473	0.3183040922872454
1.6620277004616746	0.3157392495975019
1.663027717128619	0.3129571134425921
1.6640277337955633	0.30993732939624313
1.665027750462508	0.3066603685326921
1.6660277671294523	0.3031075274266812
1.6670277837963967	0.29926092815346045
1.668027800463341	0.29510306351046844
1.6690278171302857	0.2905956479607101
1.67002783379723	0.28571605273459777
1.6710278504641745	0.28046034136961967
1.672027867131119	0.27486684752820306
1.6730278837980634	0.2689953794565778
1.6740279004650078	0.2629052636354691
1.6750279171319524	0.2566551608177552
1.6760279337988968	0.2503030660284789
1.6770279504658412	0.2439063085648353
1.6780279671327858	0.23752155199618388
1.6790279837997302	0.2312047941640377
1.6800280004666746	0.2250113671820727
1.681028017133619	0.218990877081023
1.6820280338005635	0.2131479189957683
1.683028050467508	0.20746346092528103
1.6840280671344523	0.20191761151269838
1.685028083801397	0.19648981367331078
1.6860281004683413	0.19115884459457247
1.6870281171352857	0.1859028157360905
1.6880281338022303	0.18069917282963627
1.6890281504691746	0.1755246958791344
1.690028167136119	0.17035549916067258
1.6910281838030636	0.16517027876948634
1.692028200470008	0.15997566728759693
1.6930282171369524	0.15479250254331792
1.6940282338038968	0.149641083896803
1.6950282504708414	0.14454104498036047
1.6960282671377858	0.13951135369846118
1.6970282838047301	0.13457031222773042
1.6980283004716747	0.1297355570169561
1.6990283171386191	0.12502405878708056
1.7000283338055635	0.12045212253120882
1.701028350472508	0.1160342306875647
1.7020283671394525	0.11177396009782406
1.7030283838063969	0.10766887580025887
1.7040284004733415	0.10371578794648616
1.7050284171402859	0.09991074297665008
1.7060284338072302	0.09624910792793369
1.7070284504741746	0.09272558410967542
1.7080284671411192	0.08933420710337499
1.7090284838080636	0.08606834676268824
1.710028500475008	0.08292070721343164
1.7110285171419526	0.07988261902159699
1.712028533808897	0.07693844992317193
1.7130285504758413	0.07406860087315523
1.714028567142786	0.0712685490875055
1.7150285838097303	0.06864383894799356
1.7160286004766747	0.06612367994657983
1.7170286171436193	0.06359781198184727
1.7180286338105637	0.06096427090635925
1.719028650477508	0.058129388526655
1.7200286671444525	0.055007792603253496
1.721028683811397	0.051525539094657104
1.7220287004783414	0.04764498607715159
1.7230287171452858	0.04335152935964679
1.7240287338122304	0.03863899246870154
1.7250287504791748	0.03350949488484885
1.7260287671461192	0.027973452042603132
1.7270287838130638	0.022049575330453083
1.7280288004800082	0.015764872090869533
1.7290288171469526	0.009154645620296734
1.730028833813897	0.0022624951691615942
1.7310288504808415	-0.004864577768284688
1.732028867147786	-0.012215252851256833
1.7330288838147303	-0.01979315754573733
1.734028900481675	-0.02759383411412842
1.7350289171486193	-0.03560452886486233
1.7360289338155637	-0.04380419215238475
1.7370289504825083	-0.052163478377172175
1.7380289671494527	-0.060644745985715
1.739028983816397	-0.06920205747053321
1.7400290004833416	-0.07778117937016148
1.741029017150286	-0.08631572862246979
1.7420290338172304	-0.09470829400830896
1.7430290504841748	-0.10308102754325997
1.7440290671511194	-0.11115251459762816
1.7450290838180638	-0.1184772279087668
1.7460291004850081	-0.12463996851961252
1.7470291171519527	-0.12925586577869835
1.7480291338188971	-0.13197037734014203
1.7490291504858415	-0.132459289163655
1.7500291671527861	-0.13042871551453755
1.7510291838197305	-0.1256160277623786
1.7520292004866749	-0.11779735697992978
1.7530292171536195	-0.10678365561612746
1.7540292338205639	-0.09241624633553096
1.7550292504875082	-0.07456678010827847
1.7560292671544526	-0.053137236210112855
1.7570292838213972	-0.028059922222349147
1.7580293004883416	0.000702525968086583
1.759029317155286	0.03315714416870197
1.7600293338222306	0.0692806398813877
1.761029350489175	0.10901789394655101
1.7620293671561194	0.1522697881542448
1.763029383823064	0.1988995609554033
1.7640294004900083	0.24874005329815127
1.7650294171569527	0.30159377782506586
1.7660294338238973	0.3572329188730884
1.7670294504908417	0.4153993324736188
1.768029467157786	0.47580454635241626
1.7690294838247305	0.5381297599297021
1.770029500491675	0.6020267853014322
1.7710295171586194	0.6673103391010492
1.7720295338255638	0.7330505280852269
1.7730295504925084	0.7979497058167142
1.7740295671594528	0.8608204698511558
1.7750295838263972	0.9205855057301754
1.7760296004933418	0.9762775869812605
1.7770296171602862	1.0270395751178711
1.7780296338272306	1.07212441963934
1.7790296504941752	1.1108951580309618
1.7800296671611195	1.1428249157639159
1.781029683828064	1.1674915473581342
1.7820297004950083	1.1845336025619269
1.783029717161953	1.1936730722883142
1.7840297338288973	1.194741776259022
1.7850297504958417	1.1876816221816953
1.7860297671627863	1.1725446057499056
1.7870297838297307	1.1494928106431344
1.788029800496675	1.1187984085267988
1.7890298171636196	1.0808436590522135
1.790029833830564	1.0361209098566435
1.7910298504975084	0.9852389271492682
1.792029867164453	0.9289752109056622
1.7930298838313974	0.8682078553070459
1.7940299004983418	0.803773229470518
1.7950299171652861	0.7366365074847858
1.7960299338322308	0.6677215718289343
1.7970299504991751	0.5978929179849752
1.7980299671661195	0.5279556544377277
1.7990299838330641	0.45865550267494126
1.8000300005000085	0.39067879718717174
1.8010300171669529	0.3246474006721593
1.8020300338338975	0.26107644344322145
1.8030300505008419	0.20039591664414816
1.8040300671677862	0.1429761943966728
1.8050300838347306	0.08912836559398524
1.8060301005016752	0.03910415573226696
1.8070301171686196	-0.006904097566112256
1.808030133835564	-0.04876344707888322
1.8090301505025086	-0.08640033340637415
1.810030167169453	-0.11980058414608014
1.8110301838363974	-0.14900603424770634
1.812030200503342	-0.17408627635553497
1.8130302171702863	-0.1951530157734086
1.8140302338372307	-0.21237716974107707
1.8150302505041753	-0.22597775760129957
1.8160302671711197	-0.2356973607630414
1.817030283838064	-0.24160385280775815
1.8180303005050085	-0.24407377133436037
1.819030317171953	-0.2434656993794325
1.8200303338388975	-0.24012026541723747
1.8210303505058418	-0.2343625912457304
1.8220303671727864	-0.22652287056301001
1.8230303838397308	-0.2169259698957793
1.8240304005066752	-0.20587893091875906
1.8250304171736198	-0.19367084074435625
1.8260304338405642	-0.1805728319226456
1.8270304505075086	-0.16683808244139064
1.8280304671744532	-0.15270181572602043
1.8290304838413975	-0.1383813006396541
1.830030500508342	-0.12407585148307576
1.8310305171752863	-0.10996569050575472
1.832030533842231	-0.09620233055738368
1.8330305505091753	-0.08291340798657701
1.8340305671761197	-0.07020854292560301
1.8350305838430643	-0.05817940094441849
1.8360306005100087	-0.04689969305064732
1.837030617176953	-0.036425175689601026
1.8380306338438976	-0.02679365074425927
1.839030650510842	-0.01802496553528829
1.8400306671777864	-0.010121012821023685
1.841030683844731	-0.003064710182772294
1.8420307005116754	0.0031886787014491456
1.8430307171786198	0.008707207310898541
1.8440307338455642	0.013590713187734346
1.8450307505125088	0.01802307878557382
1.8460307671794531	0.022076874545473614
1.8470307838463975	0.02580019503470819
1.8480308005133421	0.029240213903342784
1.8490308171802865	0.03244318388422505
1.8500308338472309	0.03545443679299243
1.8510308505141755	0.038316696650107486
1.8520308671811199	0.041055653017640636
1.8530308838480642	0.043687129227823834
1.8540309005150089	0.04622593205125387
1.8550309171819532	0.04868594734131137
1.8560309338488976	0.0510801400341654
1.857030950515842	0.05342055414876997
1.8580309671827866	0.05571831278686669
1.859030983849731	0.05798361813298201
1.8600310005166754	0.060225751454430744
1.86103101718362	0.0624527444534932
1.8620310338505643	0.06466855241508035
1.8630310505175087	0.06687445079714377
1.8640310671844533	0.06907077508411336
1.8650310838513977	0.0712569398432048
1.866031100518342	0.07343143872442094
1.8670311171852865	0.07559184446054988
1.868031133852231	0.07773480886716748
1.8690311505191755	0.07985606284263447
1.8700311671861198	0.08195041636809944
1.8710311838530644	0.08401341937564315
1.8720312005200088	0.08605572986235852
1.8730312171869532	0.08809605612135768
1.8740312338538978	0.09015228400744267
1.8750312505208422	0.0922413784581997
1.8760312671877866	0.09437938349400378
1.8770312838547312	0.09658142221801384
1.8780313005216756	0.09886169681617751
1.87903131718862	0.10123348855722664
1.8800313338555643	0.10370915779268135
1.881031350522509	0.106299892278371
1.8820313671894533	0.10901351737136901
1.8830313838563977	0.11185556546882226
1.8840314005233423	0.11483063279179115
1.8850314171902867	0.1179423946441195
1.886031433857231	0.12119360541244037
1.8870314505241756	0.12458609856617031
1.88803146719112	0.1281207866575152
1.8890314838580644	0.1317976613214643
1.890031500525009	0.1356157932757964
1.8910315171919534	0.139572473595398
1.8920315338588978	0.14365569904133482
1.8930315505258422	0.14784782065259972
1.8940315671927868	0.1521444760344464
1.8950315838597311	0.1565778447009842
1.8960316005266755	0.1611440290906953
1.8970316171936201	0.16583579483823055
1.8980316338605645	0.17064578802253694
1.8990316505275089	0.1755665351668485
1.9000316671944535	0.18059044323869453
1.9010316838613979	0.18570923479461315
1.9020317005283423	0.19090897643445648
1.9030317171952869	0.19617247847437036
1.9040317338622312	0.20148238333768356
1.9050317505291756	0.20682113713635505
1.90603176719612	0.2121710373952753
1.9070317838630646	0.2175142620292108
1.908031800530009	0.2228328693972238
1.9090318171969534	0.22810879830266362
1.910031833863898	0.23332386799317512
1.9110318505308423	0.2384618486419157
1.9120318671977867	0.24352678982906478
1.9130318838647313	0.24853422600347763
1.9140319005316757	0.25349970620118245
1.91503191719862	0.2584386599024951
1.9160319338655647	0.26336639703202663
1.917031950532509	0.26829810795867554
1.9180319671994535	0.2732488634956362
1.9190319838663978	0.278233614900389
1.9200320005333424	0.2832671938747098
1.9210320172002868	0.2883634731436231
1.9220320338672312	0.2935278927111147
1.9230320505341758	0.2987610246262573
1.9240320672011202	0.3040632657891228
1.9250320838680646	0.3094348935440797
1.9260321005350092	0.3148760656797827
1.9270321172019536	0.32038682042918265
1.928032133868898	0.32596707646951745
1.9290321505358425	0.3316166329223207
1.930032167202787	0.3373351693534124
1.9310321838697313	0.34312080372864584
1.9320322005366757	0.34895717895914485
1.9330322172036203	0.3548195852985198
1.9340322338705647	0.36068309582491276
1.935032250537509	0.36652266406076295
1.9360322672044536	0.3723131239727957
1.937032283871398	0.37802918997203155
1.9380323005383424	0.38364545691377966
1.939032317205287	0.3891365333067714
1.9400323338722314	0.39448654873682715
1.9410323505391758	0.3996766175012995
1.9420323672061202	0.40469604460219794
1.9430323838730648	0.40954261904166256
1.9440324005400091	0.4142144584894085
1.9450324172069535	0.41870991016997566
1.9460324338738981	0.4230275508627207
1.9470324505408425	0.4271661869018258
1.9480324672077869	0.43112485417628926
1.9490324838747315	0.4349028181299353
1.9500325005416759	0.43849957376140475
1.9510325172086203	0.44191580202460923
1.9520325338755649	0.4451620338901389
1.9530325505425092	0.4482545923472571
1.9540325672094536	0.4512100975709194
1.955032583876398	0.4540453992909052
1.9560326005433426	0.45677757679181313
1.957032617210287	0.4594239389130646
1.9580326338772314	0.4620020240488996
1.959032650544176	0.4645296001483815
1.9600326672111203	0.46702466471539245
1.9610326838780647	0.46950217840929037
1.9620327005450093	0.471944302948605
1.9630327172119537	0.4743142552065824
1.964032733878898	0.47657524556086656
1.9650327505458427	0.4786907139439253
1.966032767212787	0.4806243298430456
1.9670327838797315	0.4823399923003355
1.9680328005466758	0.4838018299127245
1.9690328172136204	0.48497420083196296
1.9700328338805648	0.4858216927646223
1.9710328505475092	0.4863126216595891
1.9720328672144538	0.48645109545507076
1.9730328838813982	0.4862621809762016
1.9740329005483426	0.485771432973411
1.9750329172152872	0.48500463575194935
1.9760329338822316	0.4839878031718878
1.977032950549176	0.48274717864811845
1.9780329672161205	0.48130923515035423
1.979032983883065	0.4797006752031291
1.9800330005500093	0.47794843088579897
1.9810330172169537	0.47607733855099804
1.9820330338838983	0.4740887048863997
1.9830330505508427	0.4719701606552781
1.984033067217787	0.4697093907118053
1.9850330838847317	0.4672943094649722
1.986033100551676	0.4647130608785925
1.9870331172186204	0.46195401847129886
1.988033133885565	0.45900578531654757
1.9890331505525094	0.4558571940426128
1.9900331672194538	0.4524973068325928
1.9910331838863984	0.4489172130190597
1.9920332005533428	0.44512669533695437
1.9930332172202871	0.4411466162095618
1.9940332338872315	0.4369982062111939
1.9950332505541761	0.4327029254709803
1.9960332672211205	0.42828246367287554
1.997033283888065	0.42375874005565045
1.9980333005550095	0.41915390341290193
1.9990333172219539	0.41448067190209104
2.0000333338888985	0.40975258369989687
2.0010333505558426	0.4049914399860158
2.0020333672227872	0.40019995316834833
2.003033383889732	0.39536952481153315
2.004033400556676	0.3904912984611088
2.0050334172236206	0.3855563387595305
2.006033433890565	0.3805556162049346
2.0070334505575094	0.3754799847293479
2.008033467224454	0.3703201822754004
2.0090334838913986	0.3650668312505701
2.0100335005583427	0.3597104372846028
2.0110335172252873	0.35424277597373893
2.0120335338922315	0.3486699013028654
2.013033550559176	0.343006278393841
2.0140335672261207	0.3372663670894242
2.015033583893065	0.33146451034279023
2.0160336005600095	0.32561493421751686
2.017033617226954	0.3197317478875931
2.0180336338938982	0.3138289436374157
2.019033650560843	0.30792039686179773
2.0200336672277874	0.3020198660659547
2.0210336838947316	0.2961399319288899
2.022033700561676	0.2902819878584976
2.023033717228621	0.2844407254972336
2.024033733895565	0.2786106323750442
2.0250337505625096	0.2727860791322881
2.026033767229454	0.266961319519731
2.0270337838963983	0.2611304903985553
2.028033800563343	0.2552876117403458
2.0290338172302875	0.24942658662709866
2.0300338338972317	0.2435412012512178
2.0310338505641763	0.23762665926679688
2.032033867231121	0.23169414225479368
2.033033883898065	0.22576432719316197
2.0340339005650097	0.2198579030271217
2.0350339172319543	0.2139954418123092
2.0360339338988984	0.2081973987147638
2.037033950565843	0.20248411201093566
2.038033967232787	0.19687580308768285
2.039033983899732	0.1913925764422798
2.0400340005666764	0.18605441968240316
2.0410340172336205	0.18087983553033554
2.042034033900565	0.17587278409162208
2.0430340505675098	0.17102845824107857
2.044034067234454	0.16634181661379643
2.0450340839013985	0.16180770095527927
2.046034100568343	0.1574208361214378
2.0470341172352873	0.15317583007859845
2.048034133902232	0.14906717390349114
2.0490341505691765	0.14508924178325694
2.0500341672361206	0.1412362910154465
2.0510341839030652	0.13750112648879242
2.05203420057001	0.13386227831458802
2.053034217236954	0.13028963562511978
2.0540342339038986	0.1267528536485594
2.055034250570843	0.12322147072348542
2.0560342672377874	0.1196649834686214
2.057034283904732	0.11605773476317024
2.0580343005716766	0.1123706591281109
2.0590343172386207	0.10857109129257758
2.0600343339055653	0.10462636990555872
2.0610343505725095	0.10050903294458004
2.062034367239454	0.09624699136064785
2.0630343839063987	0.09190163111103819
2.064034400573343	0.08753480698974454
2.0650344172402875	0.08320837771060595
2.066034433907232	0.07898420590731121
2.0670344505741762	0.07492415813339558
2.068034467241121	0.07109010486224793
2.0690344839080654	0.06754392048710156
2.0700345005750096	0.06434748332103879
2.071034517241954	0.06155619725951886
2.072034533908899	0.05915606144785829
2.073034550575843	0.05709095115023886
2.0740345672427876	0.055304153497751724
2.075034583909732	0.05373895954133594
2.0760346005766763	0.052338664251782165
2.077034617243621	0.0510465665197262
2.0780346339105655	0.04980596915565413
2.0790346505775097	0.04856017888989897
2.0800346672444543	0.047252506372646046
2.081034683911399	0.04583030694796548
2.082034700578343	0.044284463120780174
2.0830347172452877	0.04263238463308544
2.0840347339122323	0.040891862265968824
2.0850347505791764	0.039080690720364464
2.086034767246121	0.03721666861705532
2.087034783913065	0.03531759849667288
2.08803480058001	0.033401286819698776
2.0890348172469544	0.03148554396646163
2.0900348339138985	0.029588184237139138
2.091034850580843	0.027726790379517318
2.0920348672477878	0.025916399258115057
2.093034883914732	0.024170491515780462
2.0940349005816765	0.022502529273958908
2.095034917248621	0.020925978573944244
2.0960349339155653	0.019454309376880363
2.09703495058251	0.018100995563757945
2.0980349672494545	0.0168795149354172
2.0990349839163986	0.01580334921254611
2.1000350005833432	0.014885984035682847
2.101035017250288	0.014138941907259239
2.102035033917232	0.013552335232238276
2.1030350505841766	0.013103124893930642
2.104035067251121	0.012768083947526276
2.1050350839180654	0.01252398282752065
2.10603510058501	0.012347589827788398
2.1070351172519546	0.01221567693328378
2.1080351339188987	0.012105020048809615
2.1090351505858433	0.011992398999017018
2.110035167252788	0.011854597528405838
2.111035183919732	0.011669924605404721
2.1120352005866767	0.01143334314372038
2.113035217253621	0.011150089997490474
2.1140352339205655	0.01082555710156166
2.11503525058751	0.010465140310628927
2.1160352672544542	0.01007423939923654
2.117035283921399	0.009658258061776441
2.1180353005883434	0.009222603912489805
2.1190353172552876	0.008772688485465955
2.120035333922232	0.008313927234643526
2.121035350589177	0.007851900547842336
2.122035367256121	0.007393964408804839
2.1230353839230656	0.0069485759294025005
2.12403540059001	0.006524212476027178
2.1250354172569543	0.0061293553349189445
2.126035433923899	0.005772489712166394
2.1270354505908435	0.005462104733707216
2.1280354672577877	0.005206693445327399
2.1290354839247323	0.005014752812661264
2.130035500591677	0.0048947837211922
2.131035517258621	0.004854014911552473
2.1320355339255657	0.00488688614917932
2.1330355505925103	0.004981354220618062
2.1340355672594544	0.0051254789489921775
2.135035583926399	0.005307375733315275
2.136035600593343	0.005515215548491552
2.137035617260288	0.0057372249453160286
2.1380356339272324	0.005961686050474124
2.1390356505941766	0.006176936566541602
2.140035667261121	0.006371369771985201
2.1410356839280658	0.006534076988152426
2.14203570059501	0.006661350511306064
2.1430357172619545	0.0067539991453721155
2.144035733928899	0.006812955202485233
2.1450357505958433	0.006839206570671031
2.146035767262788	0.00683379671384538
2.1470357839297325	0.006797824671815197
2.1480358005966766	0.0067324450602773
2.1490358172636213	0.006638868070819551
2.150035833930566	0.006518359470919993
2.15103585059751	0.006373177933207661
2.1520358672644546	0.006216118670769466
2.153035883931399	0.006066602184923763
2.1540359005983434	0.005944205728059643
2.155035917265288	0.00586856212845659
2.1560359339322326	0.00585935979028413
2.1570359505991767	0.0059363426936030975
2.1580359672661213	0.0061193103943642385
2.159035983933066	0.006428118024409529
2.16003600060001	0.006882676291470668
2.1610360172669547	0.007500526613328787
2.162036033933899	0.008272005462314243
2.1630360506008435	0.00917034855242061
2.164036067267788	0.010168579993545679
2.1650360839347322	0.011239779471478353
2.166036100601677	0.012357082247898298
2.1670361172686214	0.01349367916037541
2.1680361339355656	0.014622816622369614
2.16903615060251	0.015717796623232364
2.170036167269455	0.016751976728205067
2.171036183936399	0.01770159688323185
2.1720362006033436	0.018574903547630008
2.173036217270288	0.01940038792477558
2.1740362339372323	0.02020691471910769
2.175036250604177	0.02102340421095669
2.1760362672711215	0.021878832256542226
2.1770362839380657	0.022802230287975154
2.1780363006050103	0.023822685313257402
2.179036317271955	0.02496933991628092
2.180036333938899	0.026271392256828816
2.1810363506058437	0.027756074690375575
2.1820363672727883	0.02942770408281099
2.1830363839397324	0.03127607951622077
2.184036400606677	0.03329082360542441
2.1850364172736216	0.03546161454112938
2.186036433940566	0.03777818608993582
2.1870364506075104	0.04023032759433392
2.1880364672744546	0.04280788397270548
2.189036483941399	0.04550075571931952
2.1900365006083438	0.048298898904338854
2.191036517275288	0.05119306504126004
2.1920365339422325	0.054182514717101296
2.193036550609177	0.05727194875066623
2.1940365672761213	0.060466210221942096
2.195036583943066	0.06377019778680579
2.1960366006100105	0.06718886567702623
2.1970366172769547	0.0707272237002583
2.1980366339438993	0.07439033724005184
2.199036650610844	0.07818332725584592
2.200036667277788	0.08211137028297189
2.2010366839447326	0.0861750822226503
2.2020367006116772	0.09036532943266379
2.2030367172786214	0.09467443459361395
2.204036733945566	0.0990944081634148
2.2050367506125106	0.10361690975635228
2.2060367672794547	0.10823324381291445
2.2070367839463993	0.11293437292006243
2.208036800613344	0.11771091902138317
2.209036817280288	0.12255316444722465
2.2100368339472327	0.12745105148949087
2.211036850614177	0.13239534731190067
2.2120368672811215	0.13738994144173353
2.213036883948066	0.1424470273745795
2.2140369006150102	0.1475786001013295
2.215036917281955	0.15279631386772602
2.2160369339488994	0.15811148217437074
2.2170369506158436	0.16353507777671225
2.218036967282788	0.16907773268506235
2.219036983949733	0.17474973816458594
2.220037000616677	0.180561044735305
2.2210370172836216	0.18651870995447573
2.222037033950566	0.19259981099830328
2.2230370506175103	0.19876197613728885
2.224037067284455	0.20496217506414874
2.2250370839513995	0.2111570367264467
2.2260371006183437	0.21730284932660993
2.2270371172852883	0.2233555603219178
2.228037133952233	0.2292707764245079
2.229037150619177	0.23500376360136555
2.2300371672861217	0.24050944707433866
2.2310371839530663	0.24574491420012964
2.2320372006200104	0.25069613702626675
2.233037217286955	0.25536766362839747
2.2340372339538996	0.2597640193981246
2.235037250620844	0.2638893889819037
2.2360372672877884	0.2677476162810483
2.2370372839547326	0.2713422044517205
2.238037300621677	0.27467631590494446
2.2390373172886218	0.27775277230659695
2.240037333955566	0.2805769732836959
2.2410373506225105	0.2831652405724844
2.242037367289455	0.2855212492841838
2.2430373839563993	0.28764354676398823
2.244037400623344	0.28953134764380106
2.2450374172902885	0.2911846192254426
2.2460374339572327	0.292604081480656
2.2470374506241773	0.2937912070511031
2.248037467291122	0.2947482212483665
2.249037483958066	0.2954781020539467
2.2500375006250106	0.29598458011926587
2.2510375172919552	0.29627142648636084
2.2520375339588994	0.29633475642636276
2.253037550625844	0.29616595158134673
2.2540375672927886	0.2957570520218874
2.2550375839597327	0.2951008504884802
2.2560376006266774	0.2941908923915387
2.257037617293622	0.29302147581139876
2.258037633960566	0.29158765149831417
2.2590376506275107	0.2898852228724591
2.2600376672944553	0.28791074602392686
2.2610376839613995	0.2856614180967152
2.262037700628344	0.28313386404440427
2.2630377172952882	0.28032459358586714
2.264037733962233	0.27723085404209585
2.2650377506291774	0.273850645404008
2.2660377672961216	0.27018272033243595
2.267037783963066	0.26622658415813366
2.268037800630011	0.2619824948817724
2.269037817296955	0.25745146317394996
2.2700378339638996	0.25263525237517764
2.271037850630844	0.24753782664198917
2.2720378672977883	0.24218118657738338
2.273037883964733	0.23659945328921422
2.2740379006316775	0.2308277000119484
2.2750379172986217	0.22490175264997533
2.2760379339655663	0.21885818977760121
2.277037950632511	0.21273434263906
2.278037967299455	0.20656829514849792
2.2790379839663997	0.20039540845758844
2.2800380006333443	0.19421699688682
2.2810380173002884	0.18805976664830346
2.282038033967233	0.18193666137582024
2.2830380506341776	0.17584422432844268
2.284038067301122	0.16977769415931263
2.2850380839680664	0.16373127741581103
2.2860381006350106	0.1576981485395428
2.287038117301955	0.1516704498663467
2.2880381339688998	0.14563929162629083
2.289038150635844	0.13959475194368257
2.2900381673027885	0.13352587683705278
2.291038183969733	0.1274241012815156
2.2920382006366773	0.12132111060448758
2.293038217303622	0.11527492816701905
2.2940382339705665	0.1093430356439967
2.2950382506375107	0.10358188260454083
2.2960382673044553	0.09804688651200152
2.2970382839714	0.0927924327239669
2.298038300638344	0.08787187449224959
2.2990383173052886	0.08333753296289682
2.3000383339722332	0.07924069717618477
2.3010383506391774	0.07562610007587255
2.302038367306122	0.07247041497761714
2.3030383839730666	0.06970466615191842
2.3040384006400108	0.06725803802139757
2.3050384173069554	0.06505870102085942
2.3060384339739	0.06303383405453993
2.307038450640844	0.06110958943458085
2.3080384673077887	0.0592110873673556
2.3090384839747333	0.05726241595346924
2.3100385006416775	0.05518663118776121
2.311038517308622	0.052908766062633436
2.3120385339755662	0.05038953594397709
2.313038550642511	0.04761316092206719
2.3140385673094555	0.044563277873934735
2.3150385839763996	0.04122249157083842
2.316038600643344	0.037572374678269765
2.317038617310289	0.033593467755950124
2.318038633977233	0.029265279257836906
2.3190386506441776	0.024566285532115567
2.320038667311122	0.019491795956927266
2.3210386839780663	0.014068938807040821
2.322038700645011	0.008267233329329531
2.3230387173119555	0.0020953149560915814
2.3240387339788997	-0.004424978386840118
2.3250387506458443	-0.011259350731663122
2.326038767312789	-0.018361048068593767
2.327038783979733	-0.025670858345880145
2.3280388006466777	-0.03311711146979726
2.3290388173136223	-0.040615679304646615
2.3300388339805664	-0.04806997567275003
2.331038850647511	-0.055380884042677075
2.3320388673144556	-0.06255930887976055
2.3330388839814	-0.06968620721864566
2.3340389006483444	-0.07683161897743515
2.335038917315289	-0.0840531260322691
2.336038933982233	-0.09139585221730896
2.3370389506491778	-0.09889246332474903
2.338038967316122	-0.10656316710479534
2.3390389839830665	-0.11441571326569418
2.340039000650011	-0.1224453934737144
2.3410390173169553	-0.13062724148601423
2.3420390339839	-0.1388270689253836
2.3430390506508445	-0.14684729389945483
2.3440390673177887	-0.15458168676088188
2.3450390839847333	-0.16169167597244383
2.346039100651678	-0.16779432852448317
2.347039117318622	-0.1725268300025454
2.3480391339855666	-0.1755464845873663
2.3490391506525112	-0.17653071505487533
2.3500391673194554	-0.17517706277619483
2.3510391839864	-0.17120652234808267
2.3520392006533446	-0.16440180689457315
2.3530392173202888	-0.1545939972590145
2.3540392339872334	-0.14163483132473068
2.355039250654178	-0.125396165570227
2.356039267321122	-0.10576997506920621
2.3570392839880667	-0.08266835349055333
2.3580393006550113	-0.05602351309837836
2.3590393173219555	-0.02578778475195575
2.3600393339889	0.008066382094238083
2.3610393506558442	0.045546279467760256
2.362039367322789	0.08663732548298748
2.3630393839897335	0.1313036229204012
2.3640394006566776	0.1794891329223865
2.365039417323622	0.23111769803615953
2.366039433990567	0.2861103933081122
2.367039450657511	0.3453233061231197
2.3680394673244556	0.40833772005682567
2.3690394839914	0.47388748786758594
2.3700395006583443	0.5407782074206985
2.371039517325289	0.6078896301491682
2.3720395339922336	0.6742036358185032
2.3730395506591777	0.7387946466512896
2.3740395673261223	0.8008092344845416
2.375039583993067	0.8594657162623914
2.376039600660011	0.9140541540359727
2.3770396173269557	0.9639363549634714
2.3780396339939003	1.0085458713100381
2.3790396506608444	1.047388000447922
2.380039667327789	1.08003978485638
2.3810396839947336	1.1061474698919056
2.382039700661678	1.125396795200005
2.3830397173286224	1.1375230817043223
2.384039733995567	1.1423329599995644
2.385039750662511	1.1397048057874657
2.3860397673294558	1.129588739876796
2.3870397839964	1.1120066281833552
2.3880398006633445	1.0870520817299714
2.389039817330289	1.0548904566464896
2.3900398339972333	1.0157588541698315
2.391039850664178	0.9699665190233898
2.3920398673311225	0.9179089930512085
2.3930398839980667	0.8605760536666884
2.3940399006650113	0.7990994986937889
2.395039917331956	0.7343938412772969
2.3960399339989	0.6673195225692442
2.3970399506658446	0.5986829117288524
2.3980399673327892	0.5292363059226551
2.3990399839997334	0.4596779303243152
2.400040000666678	0.39065193811474525
2.4010400173336226	0.32275105130643006
2.4020400340005668	0.2565477998541517
2.4030400506675114	0.192584111262133
2.404040067334456	0.1313483114186219
2.4050400840014	0.07327463595790229
2.4060401006683447	0.018743182430794973
2.4070401173352893	-0.03192003855162004
2.4080401340022335	-0.07844308837102028
2.409040150669178	-0.12060810166495321
2.4100401673361227	-0.15825128991727638
2.411040184003067	-0.19126738867549753
2.4120402006700115	-0.2196626299471636
2.4130402173369556	-0.2435372558055386
2.4140402340039	-0.2630463887247672
2.415040250670845	-0.27839922317180765
2.416040267337789	-0.28985902560638566
2.4170402840047336	-0.29774313448100975
2.418040300671678	-0.3024229602409576
2.4190403173386223	-0.3043146014693473
2.420040334005567	-0.30338371601077563
2.4210403506725116	-0.2997953012092215
2.4220403673394557	-0.29392199407798253
2.4230403840064003	-0.28607823249914105
2.424040400673345	-0.2765577565159494
2.425040417340289	-0.2656343909368723
2.4260404340072337	-0.2535620453356078
2.4270404506741783	-0.2405747140510571
2.4280404673411224	-0.22688647618734423
2.429040484008067	-0.21269149561380415
2.4300405006750116	-0.19816402096500985
2.431040517341956	-0.1834616185370626
2.4320405340089004	-0.16876412320163092
2.433040550675845	-0.1542610272484914
2.434040567342789	-0.14012251822389363
2.4350405840097338	-0.1264988684393231
2.436040600676678	-0.11352043497146497
2.4370406173436225	-0.10129765966222862
2.438040634010567	-0.0899210691187364
2.4390406506775113	-0.07946127471334316
2.440040667344456	-0.06996897258360706
2.4410406840114005	-0.06147232359962521
2.4420407006783447	-0.053945192230256636
2.4430407173452893	-0.0473173290466444
2.444040734012234	-0.0414980649274574
2.445040750679178	-0.036376815516585816
2.4460407673461226	-0.031823081223136034
2.4470407840130672	-0.02768644722143796
2.4480408006800114	-0.02382818641705111
2.449040817346956	-0.020240080412910047
2.4500408340139006	-0.01686530542467029
2.4510408506808448	-0.013642239094298451
2.4520408673477894	-0.010555558055043804
2.453040884014734	-0.0076231359414764
2.454040900681678	-0.004865148335058249
2.4550409173486227	-0.002303408428829253
2.4560409340155673	3.8632972600326915e-05
2.4570409506825115	0.0021358874530448347
2.458040967349456	0.003961628984745268
2.4590409840164007	0.005487493928366026
2.460041000683345	0.006683481033000007
2.4610410173502895	0.007525281435869596
2.4620410340172336	0.008084235057312315
2.4630410506841782	0.008499064004926815
2.464041067351123	0.008908319805281482
2.465041084018067	0.009448916373368482
2.4660411006850116	0.010256130012608309
2.467041117351956	0.01146359941484348
2.4680411340189004	0.01320332566034597
2.469041150685845	0.015605672217811912
2.4700411673527896	0.01879936494436512
2.4710411840197337	0.022898081210985993
2.4720412006866783	0.02783484978350771
2.473041217353623	0.033413557223373046
2.474041234020567	0.03943371608076364
2.4750412506875117	0.0456932012942875
2.4760412673544563	0.051988250190978774
2.4770412840214004	0.05811346248629645
2.478041300688345	0.06386180028412969
2.4790413173552897	0.06902458807678644
2.480041334022234	0.07340274515576105
2.4810413506891784	0.07683545940432242
2.482041367356123	0.07935014857551417
2.483041384023067	0.08112188618316134
2.484041400690012	0.08232883928735893
2.4850414173569564	0.08314904088109085
2.4860414340239005	0.08376038989022823
2.487041450690845	0.08434065117352821
2.4880414673577893	0.08506745552264083
2.489041484024734	0.08611829966210027
2.4900415006916785	0.08767054624933333
2.4910415173586227	0.08989072277657399
2.4920415340255673	0.09280074036356283
2.493041550692512	0.09631864515315998
2.494041567359456	0.10036007996462165
2.4950415840264006	0.10484055355008771
2.4960416006933452	0.10967544059459107
2.4970416173602894	0.11477998171605185
2.498041634027234	0.12006928346527945
2.4990416506941786	0.12545831832596663
2.5000416673611228	0.13086192471469987
2.5010416840280674	0.13619881146213428
2.502041700695012	0.141441931166356
2.503041717361956	0.1466032980469408
2.5040417340289007	0.15169565791663733
2.5050417506958453	0.156731632393634
2.5060417673627895	0.1617237679194476
2.507041784029734	0.16668449861308862
2.5080418006966787	0.17162612456107995
2.509041817363623	0.17656081178283062
2.5100418340305675	0.1815005922306402
2.5110418506975116	0.18645699738138888
2.5120418673644562	0.19143642043724723
2.513041884031401	0.19644149915387166
2.514041900698345	0.20147465647786764
2.5150419173652896	0.2065381812887218
2.516041934032234	0.21163422839881568
2.5170419506991784	0.21676481855341745
2.518041967366123	0.22193183843068529
2.5190419840330676	0.2271370406416589
2.5200420007000117	0.23238204373027355
2.5210420173669563	0.23767009975815992
2.522042034033901	0.24300927829685423
2.523042050700845	0.24839641906322452
2.5240420673677897	0.25382695070212846
2.5250420840347343	0.2592963928321929
2.5260421007016785	0.2648003560458183
2.527042117368623	0.27033454190916867
2.5280421340355677	0.275894742962187
2.529042150702512	0.28147684271858514
2.5300421673694564	0.2870768156658485
2.531042184036401	0.29269019843654026
2.532042200703345	0.29830531248047254
2.53304221737029	0.3039052409146826
2.5340422340372344	0.3094730367492616
2.5350422507041785	0.3149918439680656
2.536042267371123	0.32044489752872873
2.5370422840380673	0.3258155233626542
2.538042300705012	0.3310871383750189
2.5390423173719565	0.3362432504447638
2.5400423340389007	0.3412674584246081
2.5410423507058453	0.34614426782161467
2.54204236737279	0.35086960965263125
2.543042384039734	0.35544780644530033
2.5440424007066786	0.3598834620602775
2.5450424173736232	0.364181271331987
2.5460424340405674	0.3683460200686267
2.547042450707512	0.3723825850521594
2.5480424673744566	0.3762959340383255
2.5490424840414008	0.38009112575663456
2.5500425007083454	0.3837733099103689
2.55104251737529	0.3873474245300591
2.552042534042234	0.3908142686806794
2.5530425507091787	0.39417162242683873
2.5540425673761233	0.3974172848171414
2.5550425840430675	0.40054914587396057
2.556042600710012	0.4035651865934438
2.5570426173769567	0.4064634789455091
2.558042634043901	0.40924218587384664
2.5590426507108455	0.41189956129591454
2.5600426673777896	0.4144339501029455
2.5610426840447342	0.41684343240023664
2.562042700711679	0.4191211780550581
2.563042717378623	0.42125675628356635
2.5640427340455676	0.42323974102533946
2.565042750712512	0.42505979719372866
2.5660427673794564	0.42670668067585626
2.567042784046401	0.428170238332616
2.5680428007133456	0.4294404079986716
2.5690428173802897	0.4305072184824594
2.5700428340472343	0.4313607895661867
2.571042850714179	0.4319916091971418
2.572042867381123	0.4323941757305579
2.5730428840480677	0.4325659830856112
2.5740429007150123	0.43248935847457276
2.5750429173819565	0.43214222104170696
2.576042934048901	0.4315292852302277
2.5770429507158457	0.4306555452612759
2.57804296738279	0.429525963533819
2.5790429840497344	0.4281454706246515
2.580043000716679	0.42651896528839733
2.581043017383623	0.4246514837474902
2.582043034050568	0.4225504381199847
2.5830430507175124	0.420225000073585
2.5840430673844565	0.4176843520859541
2.585043084051401	0.4149376448125804
2.5860431007183453	0.4119939970867805
2.58704311738529	0.408862495919696
2.5880431340522345	0.4055521965003007
2.5890431507191787	0.4020721221953919
2.5900431673861233	0.3984312645495951
2.591043184053068	0.39463844069066945
2.592043200720012	0.3907003960023151
2.5930432173869566	0.38662232030254434
2.5940432340539012	0.3824093349904768
2.5950432507208454	0.37806652964305626
2.59604326738779	0.3735989620150599
2.5970432840547346	0.3690116580390869
2.5980433007216788	0.36430961182556576
2.5990433173886234	0.3594977856627497
2.600043334055568	0.3545811100167256
2.601043350722512	0.34956503788528237
2.6020433673894567	0.34446296742375243
2.6030433840564013	0.3392942470767595
2.6040434007233455	0.33407833845989493
2.60504341739029	0.3288346707163136
2.6060434340572347	0.3235826345201984
2.607043450724179	0.3183415848322263
2.6080434673911235	0.3131308447417606
2.609043484058068	0.3079697056343069
2.6100435007250122	0.30287743348452567
2.611043517391957	0.297871384655587
2.612043534058901	0.2929415663677195
2.6130435507258456	0.2880573864142709
2.61404356739279	0.28318771770273893
2.6150435840597344	0.27830140131844633
2.616043600726679	0.2733672465245499
2.6170436173936236	0.2683540307620282
2.6180436340605677	0.2632304996496879
2.6190436507275123	0.2579653669841609
2.620043667394457	0.25252731473991397
2.621043684061401	0.2468875335871876
2.6220437007283457	0.24105417134842283
2.6230437173952903	0.23506330306219603
2.6240437340622345	0.2289516620125135
2.625043750729179	0.22275594966120177
2.6260437673961237	0.2165128356479166
2.627043784063068	0.21025895779013887
2.6280438007300124	0.204030922083184
2.629043817396957	0.19786530270018793
2.630043834063901	0.19179864199211588
2.631043850730846	0.18586470710247222
2.6320438673977904	0.18005705479774142
2.6330438840647346	0.17433871980579968
2.634043900731679	0.16867194567874755
2.6350439173986233	0.16301894414650953
2.636043934065568	0.1573418951168464
2.6370439507325125	0.15160294667533783
2.6380439673994567	0.14576421508539356
2.6390439840664013	0.1397877847882485
2.640044000733346	0.13363570840297098
2.64104401740029	0.1272750512043226
2.6420440340672346	0.12074716339560661
2.6430440507341793	0.1141499832061317
2.6440440674011234	0.1075828398648987
2.645044084068068	0.10114503077872865
2.6460441007350126	0.0949358215322717
2.6470441174019568	0.089054445888004
2.6480441340689014	0.08360010578623513
2.649044150735846	0.07867197134509442
2.65004416740279	0.0743691808605427
2.6510441840697347	0.07078195476289265
2.6520442007366793	0.06786879328272843
2.6530442174036235	0.06548743809037333
2.654044234070568	0.06349304510310558
2.6550442507375127	0.061740738416024864
2.656044267404457	0.06008561030206612
2.6570442840714015	0.05838272121198448
2.658044300738346	0.05648691105308009
2.6590443174052902	0.05425049467779648
2.660044334072235	0.051524129588594536
2.661044350739179	0.04816819061714686
2.6620443674061236	0.04418803091452671
2.663044384073068	0.03970033722339428
2.6640444007400124	0.03482465618696495
2.665044417406957	0.02968054654333349
2.6660444340739016	0.024387579125485663
2.6670444507408457	0.019065336861292196
2.6680444674077903	0.013833414773515164
2.669044484074735	0.008811419979800382
2.670044500741679	0.004118971692678547
2.6710445174086237	-0.0001302913849406716
2.6720445340755683	-0.003912587150654423
2.6730445507425125	-0.007273405747675843
2.674044567409457	-0.01026001343169792
2.6750445840764017	-0.012919664363528198
2.676044600743346	-0.015299600609083565
2.6770446174102904	-0.017447052139397165
2.678044634077235	-0.019409236830614216
2.679044650744179	-0.02123336046399395
2.680044667411124	-0.022966616725905668
2.6810446840780684	-0.024654603948439296
2.6820447007450126	-0.026319023093211068
2.683044717411957	-0.027963075836664866
2.6840447340789018	-0.02958947037834691
2.685044750745846	-0.031200902822919437
2.6860447674127905	-0.03280005718015607
2.6870447840797347	-0.03438960536494485
2.6880448007466793	-0.03597220719728427
2.689044817413624	-0.0375505104022882
2.690044834080568	-0.03912715061018261
2.6910448507475127	-0.04070437954517248
2.6920448674144573	-0.042278794075950914
2.6930448840814014	-0.04384259421602933
2.694044900748346	-0.04538785270173316
2.6950449174152906	-0.04690663017450021
2.696044934082235	-0.048390975180881785
2.6970449507491794	-0.049832924172540885
2.698044967416124	-0.051224501506254544
2.699044984083068	-0.052557719443912576
2.7000450007500127	-0.05382457815251838
2.7010450174169574	-0.0550172205390738
2.7020450340839015	-0.056130141346952045
2.703045050750846	-0.05715966740002818
2.7040450674177907	-0.05810216229792735
2.705045084084735	-0.058953979959822156
2.7060451007516795	-0.05971150904945333
2.707045117418624	-0.06037116860136875
2.7080451340855682	-0.0609293670922765
2.709045150752513	-0.061382500903997154
2.710045167419457	-0.0617269543234653
2.7110451840864016	-0.06196009224739937
2.712045200753346	-0.06209451462652969
2.7130452174202904	-0.06215475108808605
2.714045234087235	-0.06216563839571697
2.7150452507541796	-0.06215200121818361
2.7160452674211237	-0.06213865212936039
2.7170452840880683	-0.062150391608234073
2.718045300755013	-0.062212008038905114
2.719045317421957	-0.06234827771058632
2.7200453340889017	-0.06258396481760412
2.7210453507558463	-0.06294214471440188
2.7220453674227905	-0.06341997205971513
2.723045384089735	-0.06399421728956389
2.7240454007566797	-0.06464108939493865
2.725045417423624	-0.06533678527194182
2.7260454340905684	-0.06605748972178933
2.727045450757513	-0.0667793754508101
2.728045467424457	-0.06747860307044565
2.729045484091402	-0.06813132109725123
2.7300455007583464	-0.06871366595289465
2.7310455174252906	-0.06920272865816463
2.732045534092235	-0.06959061541220767
2.7330455507591798	-0.06988128304620221
2.734045567426124	-0.07007899896661543
2.7350455840930685	-0.07018801848502776
2.7360456007600127	-0.07021258481813247
2.7370456174269573	-0.07015692908773564
2.738045634093902	-0.07002527032075653
2.739045650760846	-0.06982181544922751
2.7400456674277907	-0.06955075931029356
2.7410456840947353	-0.06921668175090552
2.7420457007616794	-0.06883036087607107
2.743045717428624	-0.06840748458871879
2.7440457340955686	-0.06796386373405873
2.745045750762513	-0.06751529706241441
2.7460457674294574	-0.06707756019394245
2.747045784096402	-0.06666439558150783
2.748045800763346	-0.06628905072497812
2.7490458174302908	-0.065965780883685
2.7500458340972354	-0.0657087766326133
2.7510458507641795	-0.06553101999707507
2.752045867431124	-0.06542743081740611
2.7530458840980687	-0.06537854437569654
2.754045900765013	-0.06536443499821919
2.7550459174319575	-0.06536511232690023
2.756045934098902	-0.06536052131931946
2.7570459507658462	-0.06533054224870942
2.758045967432791	-0.06525499070395592
2.7590459840997354	-0.06511361758959817
2.7600460007666796	-0.06488610912582826
2.761046017433624	-0.06455302527500448
2.7620460341005684	-0.06410971621001212
2.763046050767513	-0.06356333350074383
2.7640460674344576	-0.06292129522414906
2.7650460841014017	-0.06219095477283107
2.7660461007683463	-0.061379600855045555
2.767046117435291	-0.06049445749470143
2.768046134102235	-0.05954268403136095
2.7690461507691797	-0.058531375120240176
2.7700461674361243	-0.05746756073220766
2.7710461841030685	-0.05635818816590628
2.772046200770013	-0.05520985356025242
2.7730462174369577	-0.05402885863045727
2.774046234103902	-0.052821433940262306
2.7750462507708464	-0.051593745369062353
2.776046267437791	-0.05035189411190518
2.777046284104735	-0.04910191667949285
2.77804630077168	-0.047849784898179384
2.7790463174386244	-0.04660140590997254
2.7800463341055686	-0.04536262217253263
2.781046350772513	-0.04413782385642434
2.7820463674394578	-0.042909102500431874
2.783046384106402	-0.041640584067079045
2.7840464007733465	-0.04029582162809378
2.7850464174402907	-0.0388383035708593
2.7860464341072353	-0.03723145359840993
2.78704645077418	-0.035438630729433845
2.788046467441124	-0.03342312929827172
2.7890464841080687	-0.03114817895491995
2.7900465007750133	-0.02857694466502551
2.7910465174419574	-0.02567562855554141
2.792046534108902	-0.02246037403111078
2.7930465507758466	-0.018987679179236588
2.794046567442791	-0.015315134662938665
2.7950465841097354	-0.01150026646089277
2.79604660077668	-0.0076005358674258285
2.797046617443624	-0.003673339492522046
2.7980466341105688	0.00022399073818469596
2.7990466507775134	0.004034437848120335
2.8000466674444575	0.007700547157311359
2.801046684111402	0.011164169072354364
2.8020467007783467	0.014434276053253241
2.803046717445291	0.0175747266421245
2.8040467341122355	0.020650626164752512
2.80504675077918	0.023726733157335138
2.8060467674461242	0.02686751543442496
2.807046784113069	0.03013717287384424
2.8080468007800135	0.033599563281482975
2.8090468174469576	0.03731819643001971
2.810046834113902	0.041356232549940745
2.8110468507808464	0.0457725139823062
2.812046867447791	0.05056100733634977
2.8130468841147356	0.055662770108995355
2.8140469007816797	0.06101698132949838
2.8150469174486243	0.06656247199390591
2.816046934115569	0.072237725065059
2.817046950782513	0.07798087547259451
2.8180469674494577	0.08372971011293645
2.8190469841164023	0.08942166784930905
2.8200470007833465	0.09499383951172896
2.821047017450291	0.10038659346410776
2.8220470341172357	0.1055994840435056
2.82304705078418	0.11068040977530191
2.8240470674511244	0.11567835085523988
2.825047084118069	0.12064193944586021
2.826047100785013	0.12561945967648816
2.827047117451958	0.13065884764325192
2.8280471341189024	0.13580769140906995
2.8290471507858466	0.1411132310036579
2.830047167452791	0.14662235842351692
2.8310471841197358	0.15237750925353732
2.83204720078668	0.1583528921755541
2.8330472174536245	0.16446663164350284
2.834047234120569	0.17063485384645613
2.8350472507875133	0.1767733369402871
2.836047267454458	0.18279751104766007
2.837047284121402	0.18862245825803678
2.8380473007883467	0.19416291262766475
2.8390473174552913	0.19933326017959235
2.8400473341222354	0.2040475389036596
2.84104735078918	0.20822400235522243
2.8420473674561246	0.2118564230596901
2.843047384123069	0.21500076632496046
2.8440474007900134	0.21771451657452473
2.845047417456958	0.22005481019866918
2.846047434123902	0.22207971189755024
2.8470474507908468	0.22386549508249867
2.8480474674577914	0.22548464030239335
2.8490474841247355	0.22700617399788592
2.85004750079168	0.22849980591876784
2.8510475174586247	0.23003131550551517
2.852047534125569	0.23158999082906814
2.8530475507925135	0.23310193384320227
2.854047567459458	0.2344920071489699
2.8550475841264022	0.23568575665656782
2.856047600793347	0.2366094115853344
2.8570476174602915	0.23718988446375036
2.8580476341272356	0.23735477112944123
2.85904765079418	0.23703235072917253
2.8600476674611244	0.23615158571885303
2.861047684128069	0.2346462431952614
2.8620477007950136	0.23252014246341585
2.8630477174619577	0.22983542166096535
2.8640477341289023	0.2266566516038882
2.865047750795847	0.22304908641730506
2.866047767462791	0.21907866353548217
2.8670477841297357	0.21481200370182513
2.8680478007966803	0.21031641096888373
2.8690478174636245	0.20565987269834687
2.870047834130569	0.20091105956105287
2.8710478507975137	0.19613650496217305
2.872047867464458	0.19135565450138003
2.8730478841314024	0.1865487898923432
2.874047900798347	0.1816956567268154
2.875047917465291	0.17677668390568588
2.876047934132236	0.17177298363898882
2.8770479507991804	0.16666635144589814
2.8780479674661246	0.16143926615473767
2.879047984133069	0.1560748899029667
2.8800480008000138	0.15055706813718958
2.881048017466958	0.14487199307522725
2.8820480341339025	0.13903488989214072
2.883048050800847	0.13308540739876484
2.8840480674677913	0.12706452545543057
2.885048084134736	0.12099072495340236
2.88604810080168	0.11488626936975302
2.8870481174686247	0.10879020497747104
2.8880481341355693	0.10274065977116595
2.8890481508025134	0.09677484346706368
2.890048167469458	0.0909290475030169
2.8910481841364026	0.0852372887599071
2.892048200803347	0.07970940650895962
2.8930482174702914	0.07433476742930062
2.894048234137236	0.06910121164686538
2.89504825080418	0.06399566100920076
2.8960482674711248	0.059004119085475405
2.8970482841380694	0.05411167116647383
2.8980483008050135	0.04930248426460673
2.899048317471958	0.04455980711389674
2.9000483341389027	0.03986597016998719
2.901048350805847	0.03520325428483832
2.9020483674727915	0.0305680128603251
2.903048384139736	0.025968333539781237
2.9040484008066803	0.021411782481148865
2.905048417473625	0.016905007392525373
2.9060484341405695	0.01245370440217689
2.9070484508075136	0.008062578504044871
2.908048467474458	0.0037354067757871257
2.909048484141403	-0.0005249519833215588
2.910048500808347	-0.004716557252382214
2.9110485174752916	-0.008837331227547027
2.9120485341422357	-0.0128677836982491
2.9130485508091803	-0.016773810429397025
2.914048567476125	-0.020521734398273792
2.915048584143069	-0.024078796860548268
2.9160486008100137	-0.027413157350268568
2.9170486174769583	-0.030493893679865724
2.9180486341439025	-0.03329100194014759
2.919048650810847	-0.0357753965003074
2.9200486674777917	-0.037918910007917764
2.921048684144736	-0.03969817325938625
2.9220487008116804	-0.04113468918886133
2.923048717478625	-0.042207778529518784
2.924048734145569	-0.04309211098403032
2.925048750812514	-0.043987622440460145
2.9260487674794584	-0.0450826945846271
2.9270487841464026	-0.04655415490011268
2.928048800813347	-0.04856727666825275
2.9290488174802918	-0.05127577896814599
2.930048834147236	-0.05482182667664312
2.9310488508141805	-0.059330985588160655
2.932048867481125	-0.06482854767171906
2.9330488841480693	-0.07125248239734798
2.934048900815014	-0.07852677065424088
2.935048917481958	-0.08656383912935588
2.9360489341489027	-0.09526456030740724
2.9370489508158473	-0.10451825247087114
2.9380489674827914	-0.11420267969997029
2.939048984149736	-0.12418405187269888
2.9400490008166806	-0.13431702466480305
2.941049017483625	-0.14444816061575663
2.9420490341505694	-0.1544737208201427
2.943049050817514	-0.1643309289899102
2.944049067484458	-0.17394715553458548
2.9450490841514028	-0.18323821666145237
2.9460491008183474	-0.19210837437555714
2.9470491174852915	-0.2004503364796922
2.948049134152236	-0.20814525657442057
2.9490491508191807	-0.21506273405805923
2.950049167486125	-0.2211795975397586
2.9510491841530695	-0.22665815580240203
2.952049200820014	-0.23109050528174396
2.9530492174869583	-0.23403409220332433
2.954049234153903	-0.235083501352652
2.9550492508208475	-0.23387118592931033
2.9560492674877916	-0.23006746754696097
2.9570492841547362	-0.22338053623334028
2.958049300821681	-0.21355645043025565
2.959049317488625	-0.2003791369936038
2.9600493341555696	-0.1836703911933453
2.9610493508225137	-0.16329077150545254
2.9620493674894584	-0.13915474289355648
2.963049384156403	-0.11122849780505314
2.964049400823347	-0.07951655317737008
2.9650494174902917	-0.04406129436202101
2.9660494341572363	-0.004942975124576764
2.9670494508241805	0.03772028235526301
2.968049467491125	0.08377248748377336
2.9690494841580697	0.1330197812531376
2.970049500825014	0.18523043624148677
2.9710495174919584	0.24013602048419658
2.972049534158903	0.2974512279641239
2.973049550825847	0.3568710975534927
2.974049567492792	0.41805340384706174
2.9750495841597364	0.4806180530254307
2.9760496008266806	0.5441470828552065
2.977049617493625	0.6081846626888912
2.97804963416057	0.6723010318894957
2.979049650827514	0.7357052100564866
2.9800496674944585	0.7971855087453209
2.981049684161403	0.855632348559137
2.9820497008283473	0.9100272299784773
2.983049717495292	0.9594457808892162
2.9840497341622365	1.0030776353637223
2.9850497508291807	1.040227121260349
2.9860497674961253	1.0703132602234702
2.9870497841630694	1.0928697676834322
2.988049800830014	1.107545052856631
2.9890498174969586	1.1141022187454577
2.990049834163903	1.1124190621383094
2.9910498508308474	1.1024889077094258
2.992049867497792	1.0844350134542307
2.993049884164736	1.0585086560988373
2.9940499008316808	1.0250762551721815
2.9950499174986254	0.9846189239892584
2.9960499341655695	0.9377324696510279
2.997049950832514	0.8851273930444717
2.9980499674994587	0.827628888842556
2.999049984166403	0.7661559736815303
3.0000500008333475	0.7014172256334703
3.001050017500292	0.6342426743494036
3.0020500341672363	0.5654929248544622
3.003050050834181	0.4959715386358822
3.0040500675011255	0.42642382905799237
3.0050500841680696	0.35753681901334616
3.0060501008350142	0.2899392491943211
3.007050117501959	0.22420159902263045
