Time	Amplitude
0.0	1.0745741471189656
0.0010000166669444492	1.0699547449013773
0.0020000333338888983	1.0592654482991406
0.0030000500008333475	1.0424762017722795
0.004000066667777797	1.0197381002422692
0.005000083334722245	0.9915329613279904
0.006000100001666695	0.9583444429749374
0.0070001166686111446	0.920657191785666
0.008000133335555593	0.878956843019798
0.009000150002500042	0.8337300205940169
0.01000016666944449	0.7854643370820703
0.011000183336388941	0.7346359669403547
0.01200020000333339	0.6816721419609455
0.013000216670277839	0.626988543454072
0.014000233337222289	0.5710018413869852
0.015000250004166738	0.5141296943839996
0.016000266671111187	0.4567907497264922
0.017000283338055637	0.39940464335290404
0.018000300005000084	0.3423919998587404
0.019000316671944534	0.2861744324965688
0.02000033333888898	0.23117454317602065
0.021000350005833432	0.1778227441385076
0.022000366672777882	0.1264507024372711
0.02300038333972233	0.07722975184140483
0.02400040000666678	0.03031327137925165
0.02500041667361123	-0.014161756640494618
0.026000433340555677	-0.05607474662878847
0.027000450007500128	-0.09532150971623321
0.028000466674444578	-0.13181425375308092
0.029000483341389025	-0.1654815833092322
0.030000500008333476	-0.19626849967423646
0.031000516675277923	-0.22413634510269106
0.03200053334222237	-0.24906263251873267
0.033000550009166824	-0.27104121428541694
0.034000566676111274	-0.29008233948544365
0.03500058334305572	-0.3062126539211607
0.03600060001000017	-0.3194752001145652
0.03700061667694462	-0.3299294173073023
0.03800063334388907	-0.33765114146066666
0.03900065001083352	-0.3427326052556008
0.04000066667777796	-0.3452824380926965
0.04100068334472241	-0.3454343752119363
0.042000700011666864	-0.34337401790589106
0.043000716678611314	-0.3393123925970942
0.044000733345555765	-0.33347692242964533
0.045000750012500215	-0.3261114272672922
0.04600076667944466	-0.31747612369343087
0.04700078334638911	-0.3078476250111066
0.04800080001333356	-0.29744760543105736
0.04900081668027801	-0.28643255559587566
0.05000083334722246	-0.2749928838375463
0.051000850014166904	-0.26329896641962397
0.052000866681111355	-0.2514679405532429
0.053000883348055805	-0.2395963971953329
0.054000900015000255	-0.2277716118373711
0.055000916681944706	-0.2160715445100175
0.056000933348889156	-0.204564839783115
0.0570009500158336	-0.19331082676568917
0.05800096668277805	-0.18235951910594864
0.0590009833497225	-0.17175161499128455
0.06000100001666695	-0.16151849714827116
0.0610010166836114	-0.15169043264058227
0.062001033350555845	-0.14232207009914435
0.0630010500175003	-0.13346739752046022
0.06400106668444475	-0.12517108744636085
0.0650010833513892	-0.11746849695785987
0.06600110001833365	-0.1103856676751537
0.0670011166852781	-0.10393932575762166
0.06800113335222255	-0.09813688190382572
0.069001150019167	-0.09297643135151093
0.07000116668611144	-0.08844675387760503
0.07100118335305589	-0.08451999584854983
0.07200120002000034	-0.08112877941375332
0.07300121668694479	-0.07818861738409105
0.07400123335388924	-0.07560570710087183
0.07500125002083369	-0.07327693044458854
0.07600126668777814	-0.07108985383491623
0.07700128335472259	-0.06895267016454312
0.07800130002166704	-0.06689199392817056
0.07900131668861149	-0.06487482066568442
0.08000133335555593	-0.06285902552262981
0.08100135002250038	-0.06081372680027048
0.08200136668944483	-0.05875239821528953
0.08300138335638928	-0.056700542336422945
0.08400140002333373	-0.05468438192343259
0.08500141669027818	-0.05273085990824204
0.08600143335722263	-0.05086763939493646
0.08700145002416708	-0.04912310365976291
0.08800146669111153	-0.04752635615112987
0.08900148335805598	-0.04610722048960788
0.09000150002500043	-0.0448962404679291
0.09100151669194487	-0.0439140644640578
0.09200153335888932	-0.04313784316747563
0.09300155002583377	-0.0425339361030781
0.09400156669277822	-0.04206942294070343
0.09500158335972267	-0.041712103522351385
0.09600160002666712	-0.041430497862183745
0.09700161669361157	-0.04119384614652371
0.09800163336055602	-0.040972108733856274
0.09900165002750047	-0.040735966154828364
0.10000166669444492	-0.04045681911224845
0.10100168336138937	-0.04010871575004652
0.10200170002833381	-0.03967448315897938
0.10300171669527826	-0.039139773954508635
0.10400173336222271	-0.038490960914364526
0.10500175002916716	-0.03771513698843949
0.10600176669611161	-0.03680011529878716
0.10700178336305606	-0.03573442913962311
0.10800180003000051	-0.03450733197732482
0.10900181669694496	-0.03310879745043113
0.11000183336388941	-0.03152849148447314
0.11100185003083386	-0.029754743012247772
0.11200186669777831	-0.027831120008080093
0.11300188336472275	-0.025817834847814924
0.1140019000316672	-0.02377514243060607
0.11500191669861165	-0.021763340122436164
0.1160019333655561	-0.019842767756116268
0.11700195003250055	-0.018073807631286447
0.118001966699445	-0.016516884514415124
0.11900198336638945	-0.015232465638799625
0.1200020000333339	-0.014281060704566015
0.12100201670027835	-0.013696581369648374
0.1220020333672228	-0.013400505013667578
0.12300205003416724	-0.013284672459937358
0.12400206670111169	-0.013240966834447794
0.12500208336805615	-0.013161313730017856
0.1260021000350006	-0.01293768120629512
0.12700211670194506	-0.012462079789755495
0.1280021333688895	-0.01162656247370422
0.12900215003583393	-0.010323224718274703
0.1300021667027784	-0.008444204450429284
0.13100218336972283	-0.005913312201178859
0.1320022000366673	-0.0027885467889239603
0.13300221670361173	0.0008364942238766257
0.1340022333705562	0.004868170559002023
0.13500225003750063	0.009212799471402426
0.1360022667044451	0.013776655749199904
0.13700228337138953	0.018465971713687204
0.138002300038334	0.023186937219328685
0.13900231670527843	0.02784569965376006
0.14000233337222287	0.032348363937788255
0.14100235003916733	0.03662030607072086
0.14200236670611177	0.0406691395543639
0.14300238337305624	0.044524342537105424
0.14400240004000067	0.04821535089122417
0.14500241670694514	0.051771558022169636
0.14600243337388957	0.0552223148685632
0.14700245004083404	0.058596929902197135
0.14800246670777847	0.061924669128034994
0.14900248337472294	0.0652347560842121
0.15000250004166737	0.06855637184203457
0.1510025167086118	0.07191509228588816
0.15200253337555628	0.07532120433598824
0.1530025500425007	0.07878087477067226
0.15400256670944518	0.08230022785797841
0.1550025833763896	0.0858853453991156
0.15600260004333408	0.0895422667284644
0.15700261671027851	0.0932769887135767
0.15800263337722298	0.09709546575517533
0.15900265004416742	0.10100495225083508
0.16000266671111185	0.10502591965815532
0.16100268337805632	0.1091634404251023
0.16200270004500075	0.11340697835084208
0.16300271671194522	0.11774305713514796
0.16400273337888965	0.12215822547109814
0.16500275004583412	0.12663905708327114
0.16600276671277855	0.13117215072774602
0.16700278337972302	0.13574413019210183
0.16800280004666746	0.14034164429541837
0.16900281671361192	0.14495136688827534
0.17000283338055636	0.14955999685275317
0.1710028500475008	0.15415680539665763
0.17200286671444526	0.15874208845613644
0.1730028833813897	0.16331913541601095
0.17400290004833416	0.1678912607382671
0.1750029167152786	0.17246180391639157
0.17600293338222306	0.17703412947537073
0.1770029500491675	0.18161162697169225
0.17800296671611196	0.18619771099334329
0.1790029833830564	0.19079582115981178
0.18000300005000086	0.19540942212208573
0.1810030167169453	0.20004125187883665
0.18200303338388973	0.20469081288819788
0.1830030500508342	0.2093567487702701
0.18400306671777863	0.2140377281605846
0.1850030833847231	0.2187324447261729
0.18600310005166754	0.22343961716556668
0.187003116718612	0.22815798920879832
0.18800313338555644	0.23288632961740002
0.1890031500525009	0.23762343218440513
0.19000316671944534	0.24236811573434672
0.1910031833863898	0.24711780842541808
0.19200320005333424	0.25186379484975413
0.19300321672027868	0.25659570493591166
0.19400323338722314	0.2613031936081869
0.19500325005416758	0.26597594082237663
0.19600326672111204	0.27060365156577837
0.19700328338805648	0.27517605585718946
0.19800330005500094	0.2796829087469078
0.19900331672194538	0.2841139903167318
0.20000333338888984	0.2884591056799599
0.20100335005583428	0.2927116137993951
0.20200336672277874	0.2968803276098598
0.20300338338972318	0.30097829483541766
0.20400340005666762	0.30501858796147086
0.20500341672361208	0.3090143045049218
0.20600343339055652	0.31297856701417337
0.20700345005750098	0.3169245230691294
0.20800346672444542	0.3208653452811927
0.20900348339138988	0.3248142312932675
0.21000350005833432	0.3287844037797582
0.21100351672527878	0.3327812442789891
0.21200353339222322	0.33677557382684753
0.21300355005916768	0.3407287360271698
0.21400356672611212	0.3446020992445099
0.21500358339305656	0.34835705687492313
0.21600360006000102	0.351955027345964
0.21700361672694546	0.35535745411668834
0.21800363339388992	0.3585258056776517
0.21900365006083436	0.36142157555091
0.22000366672777882	0.36400628229002013
0.22100368339472326	0.3662554385931376
0.22200370006166772	0.36820627837455644
0.22300371672861216	0.36991308796913513
0.22400373339555663	0.3714301792986958
0.22500375006250106	0.37281188931656134
0.2260037667294455	0.3741125800075548
0.22700378339638996	0.3753866383879999
0.2280038000633344	0.3766884765057207
0.22900381673027886	0.3780725314400406
0.2300038333972233	0.37959326530178455
0.23100385006416777	0.38128774159184964
0.2320038667311122	0.38311574752127053
0.23300388339805667	0.3850156652369115
0.2340039000650011	0.3869259011217771
0.23500391673194554	0.3887848865903714
0.23600393339889	0.39053107808869936
0.23700395006583444	0.39210295709426574
0.2380039667327789	0.39343903011607645
0.23900398339972334	0.39447782869463693
0.2400040000666678	0.39515790940195356
0.24100401673361224	0.39543291397386043
0.2420040334005567	0.3953236266588693
0.24300405006750114	0.3948695471835498
0.2440040667344456	0.3941102010907215
0.24500408340139004	0.39308513895470326
0.24600410006833448	0.3918339363813146
0.24700411673527894	0.39039493046825247
0.24800413340222338	0.3887965873204332
0.24900415006916785	0.38708020217209765
0.2500041667361123	0.385290745789134
0.25100418340305675	0.38346603238656923
0.2520042000700012	0.38161194493149964
0.2530042167369456	0.3797254122604311
0.2540042334038901	0.3778033319893032
0.25500425007083455	0.37584257093513773
0.256004266737779	0.37383996511603546
0.2570042834047234	0.371792319751179
0.25800430007166786	0.3696964092608304
0.25900431673861235	0.3675489772663331
0.2600043334055568	0.36534673659011097
0.2610043500725012	0.3630854945196304
0.26200436673944566	0.3607570938299023
0.26300438340639015	0.35835224120117315
0.2640044000733346	0.35586161245627473
0.265004416740279	0.35327585261911876
0.26600443340722346	0.3505855759146978
0.2670044500741679	0.3477813657690849
0.2680044667411124	0.3448537748094339
0.2690044834080568	0.3417933248639789
0.27000450007500126	0.3385905069620347
0.2710045167419457	0.3352382862697401
0.2720045334088902	0.3317409128774129
0.27300455007583463	0.32810579984193167
0.27400456674277907	0.3243403296097297
0.2750045834097235	0.3204518538283217
0.276004600076668	0.3164476933463021
0.27700461674361243	0.3123351382133465
0.27800463341055687	0.30812144768021105
0.2790046500775013	0.3038138501987318
0.28000466674444574	0.29941954342182636
0.28100468341139023	0.29494545579148745
0.28200470007833467	0.29039740308281964
0.2830047167452791	0.2857808635540565
0.28400473341222354	0.28110128464441125
0.28500475007916803	0.276364082994178
0.28600476674611247	0.2715746444447313
0.2870047834130569	0.26673832403852615
0.28800480008000134	0.2618604460190985
0.2890048167469458	0.2569463038310647
0.2900048334138903	0.25200116012012114
0.2910048500808347	0.24703070508707503
0.29200486674777915	0.24204268746864183
0.2930048834147236	0.2370454202019772
0.2940049000816681	0.23204718546845357
0.2950049167486125	0.22705623465052435
0.29600493341555695	0.2220807883317227
0.2970049500825014	0.21712903629666286
0.2980049667494459	0.2122091375310398
0.2990049834163903	0.20732922022162859
0.30000500008333475	0.20249738175628526
0.3010050167502792	0.1977193116967303
0.3020050334172236	0.19298981319652594
0.3030050500841681	0.18830057865075334
0.30400506675111255	0.1836432709271927
0.305005083418057	0.1790095220947041
0.3060051000850014	0.17439093342322917
0.3070051167519459	0.16977907538378928
0.30800513341889035	0.1651654876484869
0.3090051500858348	0.16054167909050476
0.3100051667527792	0.15589912778410642
0.31100518341972366	0.15123222305772072
0.31200520008666816	0.1465488560184659
0.3130052167536126	0.1418607754006675
0.31400523342055703	0.13717969948114137
0.31500525008750146	0.13251731573778353
0.31600526675444596	0.12788528084957018
0.3170052834213904	0.12329522069655886
0.31800530008833483	0.11875873035988711
0.31900531675527927	0.11428737412177353
0.3200053334222237	0.10989268546551681
0.3210053500891682	0.10558331551267401
0.32200536675611263	0.10135470884089164
0.32300538342305707	0.09719847637340995
0.3240054000900015	0.0931061978688508
0.325005416756946	0.089069422286916
0.32600543342389043	0.08507966778838884
0.32700545009083487	0.08112842173513271
0.3280054667577793	0.0772071406900911
0.3290054834247238	0.07330725041728901
0.33000550009166824	0.06942014588183137
0.3310055167586127	0.06553971572342611
0.3320055334255571	0.06167153503453242
0.33300555009250155	0.057824545150914224
0.33400556675944604	0.054007656966161756
0.3350055834263905	0.050229750574945706
0.3360056000933349	0.046499675273017085
0.33700561676027935	0.04282624955720803
0.33800563342722384	0.03921826112543068
0.3390056500941683	0.035684466876678096
0.3400056667611127	0.03223359291102382
0.34100568342805715	0.02887313655328112
0.3420057000950016	0.02560497877371234
0.3430057167619461	0.02242934314155907
0.3440057334288905	0.01934640759210328
0.34500575009583495	0.016355138966642993
0.3460057667627794	0.013453470809441216
0.3470057834297239	0.01063951373318657
0.3480058000966683	0.0079113855653029
0.34900581676361275	0.005267211347948287
0.3500058334305572	0.0027051233380158005
0.3510058500975017	0.00022218523833722275
0.3520058667644461	-0.0021895705281800024
0.35300588343139055	-0.004539578178721257
0.354005900098335	-0.006837264898836884
0.35500591676527943	-0.009092050659342732
0.3560059334322239	-0.011313348216319618
0.35700595009916836	-0.013510563111114125
0.3580059667661128	-0.0156930936703376
0.35900598343305723	-0.017870331005867286
0.3600060001000017	-0.020051659014845194
0.36100601676694616	-0.022242363060114578
0.3620060334338906	-0.02442847223037787
0.36300605010083503	-0.026590352501714813
0.36400606676777947	-0.028708361874091287
0.36500608343472396	-0.03076285113273875
0.3660061001016684	-0.03273416384815362
0.36700611676861283	-0.034602636376098006
0.36800613343555727	-0.03634859785759894
0.36900615010250176	-0.0379523702189489
0.3700061667694462	-0.03939426817170572
0.37100618343639064	-0.040661186213507894
0.37200620010333507	-0.04177114302531412
0.37300621677027956	-0.042751338221333125
0.374006233437224	-0.04362896553822148
0.37500625010416844	-0.04443121149790099
0.3760062667711129	-0.04518525540755885
0.3770062834380573	-0.04591826935964747
0.3780063001050018	-0.04665741823188457
0.37900631677194624	-0.047429859687253245
0.3800063334388907	-0.048262744174001636
0.3810063501058351	-0.049176903871006344
0.3820063667727796	-0.050163201231428915
0.38300638343972404	-0.05120360881351296
0.3840064001066685	-0.052280090566257036
0.3850064167736129	-0.053374603223924906
0.38600643344055735	-0.05446909630604589
0.38700645010750184	-0.0555455121174142
0.3880064667744463	-0.056585785748089715
0.3890064834413907	-0.05757184507339739
0.39000650010833515	-0.05848561075392753
0.39100651677527964	-0.05931006444292876
0.3920065334422241	-0.06003327503451189
0.3930065501091685	-0.060644821255634564
0.39400656677611295	-0.06113427487490522
0.3950065834430574	-0.06149120044619745
0.3960066001100019	-0.061705155308650145
0.3970066167769463	-0.061765689586667484
0.39800663344389076	-0.0616623461899188
0.3990066501108352	-0.06138466081333909
0.4000066667777797	-0.060922161937128155
0.4010066834447241	-0.06027309074367646
0.40200670011166856	-0.059477489761794115
0.403006716778613	-0.05858794495830195
0.4040067334455575	-0.05765704258300235
0.4050067501125019	-0.05673736168065069
0.40600676677944636	-0.055881474081267306
0.4070067834463908	-0.05514194440013803
0.40800680011333523	-0.05457133003781395
0.4090068167802797	-0.05422218118011146
0.41000683344722416	-0.054147040798112195
0.4110068501141686	-0.05438377731456791
0.41200686678111303	-0.05489966456211454
0.4130068834480575	-0.05564076129026031
0.41400690011500196	-0.056553114904206496
0.4150069167819464	-0.05758276559441932
0.41600693344889084	-0.05867574633663074
0.4170069501158353	-0.05977808289183762
0.41800696678277977	-0.06083579380630239
0.4190069834497242	-0.06179489041155248
0.42000700011666864	-0.06260137682438101
0.4210070167836131	-0.06321074871735616
0.42200703345055757	-0.06362441551443371
0.423007050117502	-0.06385763785181851
0.42400706678444644	-0.06392567203967775
0.4250070834513909	-0.06384376717344406
0.42600710011833537	-0.06362716513381517
0.4270071167852798	-0.06329110058675448
0.42800713345222424	-0.06285080098349027
0.4290071501191687	-0.06232148656051617
0.4300071667861131	-0.061718370339591544
0.4310071834530576	-0.0610578351345453
0.43200720012000204	-0.060361972528272634
0.4330072167869465	-0.05965459959913238
0.4340072334538909	-0.05895952659672366
0.4350072501208354	-0.05830055655591046
0.43600726678777985	-0.05770148529682245
0.4370072834547243	-0.057186101424854315
0.4380073001216687	-0.0567781863306661
0.43900731678861316	-0.056501514190183365
0.44000733345555765	-0.05637985196459678
0.4410073501225021	-0.05642952967337269
0.4420073667894465	-0.05662994245437989
0.44300738345639096	-0.056949118881602534
0.44400740012333545	-0.057355865379028564
0.4450074167902799	-0.05781898861564695
0.4460074334572243	-0.05830729255704013
0.44700745012416876	-0.05878957846538439
0.44800746679111325	-0.059234644899449546
0.4490074834580577	-0.05961128771459896
0.4500075001250021	-0.05988830006278961
0.45100751679194656	-0.060040035310858504
0.452007533458891	-0.060068105855077124
0.4530075501258355	-0.05998245915323719
0.4540075667927799	-0.05979304207078305
0.45500758345972436	-0.05950979876975241
0.4560076001266688	-0.05914267070877699
0.4570076167936133	-0.05870159664308192
0.45800763346055773	-0.05819651262448587
0.45900765012750216	-0.057637352001401305
0.4600076667944466	-0.05703404541883425
0.46100768346139104	-0.05639531219921541
0.46200770012833553	-0.05572391904806903
0.46300771679527997	-0.055020802136495385
0.4640077334622244	-0.05428689443989851
0.46500775012916884	-0.05352312623027607
0.46600776679611333	-0.05273042507621925
0.46700778346305777	-0.051909715842913005
0.4680078001300022	-0.05106192069213588
0.46900781679694664	-0.050187959082259946
0.4700078334638911	-0.049288747768250894
0.47100785013083557	-0.04836710358635888
0.47200786679778	-0.04743525050247087
0.47300788346472444	-0.04650831337077266
0.4740079001316689	-0.04560141517273997
0.47500791679861337	-0.0447296761864425
0.4760079334655578	-0.04390821398654337
0.47700795013250225	-0.04315214344429933
0.4780079667994467	-0.04247657672756083
0.4790079834663912	-0.041896623300771964
0.4800080001333356	-0.04142738992497026
0.48100801680028005	-0.04108009630837864
0.4820080334672245	-0.04084666278594989
0.4830080501341689	-0.040713026134421335
0.4840080668011134	-0.04066511861200166
0.48500808346805785	-0.04068886977349301
0.4860081001350023	-0.040770206470291434
0.4870081168019467	-0.04089505285038632
0.4880081334688912	-0.041049330358360905
0.48900815013583565	-0.04121895773539181
0.4900081668027801	-0.041389851019249475
0.4910081834697245	-0.04154981952942641
0.49200820013666896	-0.041696131633580574
0.49300821680361345	-0.041828998629474624
0.4940082334705579	-0.04194863005856343
0.4950082501375023	-0.042055232758895195
0.49600826680444676	-0.04214901086511207
0.49700828347139125	-0.042230165808449446
0.4980083001383357	-0.04229889631673672
0.4990083168052801	-0.042355398414396526
0.5000083334722246	-0.04239986542244555
0.501008350139169	-0.042431156784870847
0.5020083668061135	-0.04244143288201187
0.5030083834730579	-0.042420708528398444
0.5040084001400024	-0.04235898685475498
0.5050084168069469	-0.042246268288399676
0.5060084334738912	-0.04207255055324427
0.5070084501408357	-0.041827828669794294
0.5080084668077802	-0.041502094955148595
0.5090084834747246	-0.041085339023000066
0.5100085001416691	-0.04056754778363469
0.5110085168086135	-0.03994391811157808
0.512008533475558	-0.039235895064148936
0.5130085501425025	-0.03847316618581732
0.5140085668094468	-0.037685419282265195
0.5150085834763913	-0.03690233945576819
0.5160086001433357	-0.03615360910519569
0.5170086168102802	-0.03546890792601034
0.5180086334772247	-0.03487791291026868
0.5190086501441691	-0.03441029834662097
0.5200086668111136	-0.0340957358203108
0.5210086834780581	-0.033955974072230846
0.5220087001450024	-0.03397269169418741
0.5230087168119469	-0.034114923859479715
0.5240087334788913	-0.034351698240008534
0.5250087501458358	-0.0346520398042687
0.5260087668127803	-0.03498497081734819
0.5270087834797247	-0.03531951084092907
0.5280088001466692	-0.03562467673328669
0.5290088168136136	-0.03586948264929013
0.530008833480558	-0.03602294004040214
0.5310088501475025	-0.03606055206552137
0.5320088668144469	-0.035990823752327865
0.5330088834813914	-0.03583271609186929
0.5340089001483358	-0.03560519155784892
0.5350089168152803	-0.03532720992056378
0.5360089334822248	-0.035017728246904675
0.5370089501491692	-0.034695700900355876
0.5380089668161137	-0.034380079540995145
0.5390089834830581	-0.03408981312549416
0.5400090001500025	-0.03384413785027238
0.541009016816947	-0.03366075518014758
0.5420090334838914	-0.033531026814637835
0.5430090501508359	-0.0334377548771825
0.5440090668177804	-0.03336372077622183
0.5450090834847248	-0.03329168833792419
0.5460091001516693	-0.0332044038061865
0.5470091168186136	-0.033084595842634124
0.5480091334855581	-0.03291497552662049
0.5490091501525026	-0.03267823635522762
0.550009166819447	-0.03235705424326585
0.5510091834863915	-0.03193939927622233
0.552009200153336	-0.03144046513312452
0.5530092168202804	-0.03088413693326061
0.5540092334872249	-0.030294286077479103
0.5550092501541692	-0.029694766384356808
0.5560092668211137	-0.029109414090198425
0.5570092834880582	-0.028562047849037694
0.5580093001550026	-0.028076468732636216
0.5590093168219471	-0.027676460230484187
0.5600093334888915	-0.027385788249800178
0.561009350155836	-0.02722052125380455
0.5620093668227805	-0.02715714436972133
0.5630093834897248	-0.02715941992497151
0.5640094001566693	-0.027191086738973868
0.5650094168236138	-0.027215866048875284
0.5660094334905582	-0.02719746150955122
0.5670094501575027	-0.027099559193605263
0.5680094668244471	-0.02688582759136959
0.5690094834913916	-0.02651991761090472
0.5700095001583361	-0.02596546257799923
0.5710095168252804	-0.025194758044891415
0.5720095334922249	-0.024225003570412552
0.5730095501591693	-0.02308787004411432
0.5740095668261138	-0.021815017870603887
0.5750095834930583	-0.020438089872217156
0.5760096001600027	-0.01898871128901811
0.5770096168269472	-0.01749848977879921
0.5780096334938916	-0.015999015417081167
0.579009650160836	-0.014521860697113215
0.5800096668277805	-0.013098580529872741
0.5810096834947249	-0.011756135289286035
0.5820097001616694	-0.010497671909878603
0.5830097168286139	-0.009318610726765313
0.5840097334955583	-0.008214350530374951
0.5850097501625028	-0.007180272528864494
0.5860097668294472	-0.00621174034811955
0.5870097834963917	-0.005304100031753832
0.5880098001633361	-0.00445268004110942
0.5890098168302805	-0.0036527912552568893
0.590009833497225	-0.0028997269709951402
0.5910098501641694	-0.002183799230284514
0.5920098668311139	-0.0014693781047302782
0.5930098834980584	-0.0007123803656074227
0.5940099001650028	0.00013129934378477114
0.5950099168319473	0.0011057839624188785
0.5960099334988918	0.002255214011538794
0.5970099501658361	0.003623747594660413
0.5980099668327806	0.005255560397570835
0.599009983499725	0.007194845688329329
0.6000100001666695	0.009485814317266299
0.601010016833614	0.012160042429825435
0.6020100335005584	0.015182732233612195
0.6030100501675029	0.018497373977424014
0.6040100668344472	0.022047456837239437
0.6050100835013917	0.025776488023004984
0.6060101001683362	0.02962799232693859
0.6070101168352806	0.03354551212352967
0.6080101335022251	0.037472607369539626
0.6090101501691695	0.04135285560400112
0.610010166836114	0.04512985194821881
0.6110101835030585	0.048760240509941676
0.6120102001700028	0.05226936777690506
0.6130102168369473	0.055705160154858234
0.6140102335038918	0.059142713294285505
0.6150102501708362	0.06264611374085886
0.6160102668377807	0.06625067898549307
0.6170102835047251	0.0699918791690395
0.6180103001716696	0.07390533708228604
0.6190103168386141	0.07802682816595755
0.6200103335055585	0.08239228051071555
0.621010350172503	0.0870267141015149
0.6220103668394473	0.09189673664719655
0.6230103835063918	0.09694979806343865
0.6240104001733363	0.10213348898555995
0.6250104168402807	0.10739555269881633
0.6260104335072252	0.11268388513840003
0.6270104501741697	0.11794653488944025
0.6280104668411141	0.12313170318700276
0.6290104835080585	0.12818774391608997
0.6300105001750029	0.13306316361164142
0.6310105168419474	0.1377183139064465
0.6320105335088919	0.14217589223701246
0.6330105501758363	0.14647934591467288
0.6340105668427808	0.15067228819836206
0.6350105835097252	0.15479848499695054
0.6360106001766697	0.1589018548692462
0.6370106168436142	0.1630264690239929
0.6380106335105585	0.1672165513198719
0.639010650177503	0.17151647826550082
0.6400106668444474	0.17597077901943387
0.6410106835113919	0.1806117852153447
0.6420107001783364	0.18540598849204107
0.6430107168452808	0.1902980812421229
0.6440107335122253	0.19523289370948918
0.6450107501791698	0.20015540878797558
0.6460107668461141	0.2050107620213548
0.6470107835130586	0.20974424160333568
0.648010800180003	0.21430128837756415
0.6490108168469475	0.21862749583762284
0.650010833513892	0.2226686101270308
0.6510108501808364	0.22638243236094135
0.6520108668477809	0.22979080740644814
0.6530108835147252	0.2329370792539765
0.6540109001816697	0.23586475955955177
0.6550109168486142	0.23861751262913583
0.6560109335155586	0.2412391554186276
0.6570109501825031	0.24377365753386254
0.6580109668494476	0.2462651412306132
0.659010983516392	0.24875788141458807
0.6600110001833365	0.251296305641433
0.6610110168502809	0.2539110222551422
0.6620110335172253	0.25655744798061486
0.6630110501841698	0.2591658682903313
0.6640110668511142	0.26166670276172205
0.6650110835180587	0.2639905236221547
0.6660111001850031	0.26606805574893316
0.6670111168519476	0.26783017666929854
0.6680111335188921	0.26920791656042803
0.6690111501858365	0.27013245824943655
0.670011166852781	0.2705351372133742
0.6710111835197254	0.270364864858111
0.6720112001866698	0.2696650926552385
0.6730112168536143	0.26851123848365194
0.6740112335205587	0.26697889718671897
0.6750112501875032	0.2651438162577451
0.6760112668544477	0.26308189583997227
0.6770112835213921	0.2608691887265789
0.6780113001883366	0.2585819003606799
0.6790113168552809	0.2562963888353274
0.6800113335222254	0.25408916489351024
0.6810113501891699	0.25202095379453754
0.6820113668561143	0.25006589513905214
0.6830113835230588	0.24816891701200827
0.6840114001900032	0.24627507677872176
0.6850114168569477	0.24432958445444525
0.6860114335238922	0.24227780270436833
0.6870114501908365	0.2400691783182301
0.688011466857781	0.23766615344157657
0.6890114835247255	0.23502614623311627
0.6900115001916699	0.2321057912583945
0.6910115168586144	0.22887043576948074
0.6920115335255588	0.22533415324584394
0.6930115501925033	0.22152742394132105
0.6940115668594478	0.2174804973716974
0.6950115835263921	0.2132233785240353
0.6960116001933366	0.20878582785667452
0.697011616860281	0.20419736129923136
0.6980116335272255	0.19948725025259906
0.69901165019417	0.19468452158894817
0.7000116668611144	0.18981795765172618
0.7010116835280589	0.18491344756256065
0.7020117001950034	0.1799820914805162
0.7030117168619477	0.1750297962379895
0.7040117335288922	0.170062227569827
0.7050117501958366	0.1650848067015873
0.7060117668627811	0.16010271033010715
0.7070117835297256	0.15512087062350044
0.70801180019667	0.15014397522115744
0.7090118168636145	0.14517646723374572
0.7100118335305589	0.14022254524320973
0.7110118501975033	0.13528828855659492
0.7120118668644478	0.13039125818197328
0.7130118835313922	0.12555279291069396
0.7140119001983367	0.12079399060634906
0.7150119168652811	0.11613570460380777
0.7160119335322256	0.11159854370921621
0.7170119501991701	0.10720287219999722
0.7180119668661145	0.10296880982485097
0.719011983533059	0.09891623180375464
0.7200120002000034	0.09506476882796204
0.7210120168669478	0.09142681458924713
0.7220120335338923	0.08797575932207644
0.7230120502008367	0.08467139537864943
0.7240120668677812	0.08147325816446621
0.7250120835347257	0.078340638556304
0.7260121002016701	0.07523258290221689
0.7270121168686146	0.07210789302153564
0.7280121335355589	0.06892512620486878
0.7290121502025034	0.0656425952141012
0.7300121668694479	0.06221836828239481
0.7310121835363923	0.05862108692777321
0.7320122002033368	0.05487938678627972
0.7330122168702813	0.05104250357900776
0.7340122335372257	0.047159448622775275
0.7350122502041702	0.04327898870567624
0.7360122668711145	0.039449646087081944
0.737012283538059	0.03571969849764114
0.7380123002050035	0.03213717913927896
0.7390123168719479	0.028749876685197812
0.7400123335388924	0.02560533527987686
0.7410123502058368	0.02274139276839343
0.7420123668727813	0.02014271222824601
0.7430123835397258	0.017820113354035168
0.7440124002066701	0.015826730301997844
0.7450124168736146	0.014105397193022572
0.7460124335405591	0.012595733196914366
0.7470124502075035	0.01123832129788402
0.748012466874448	0.009974708294546957
0.7490124835413924	0.008747404799923652
0.7500125002083369	0.007499885241440105
0.7510125168752814	0.006183389709237405
0.7520125335422257	0.004788347788666861
0.7530125502091702	0.003319496401532237
0.7540125668761146	0.0017825501459864833
0.7550125835430591	0.00018418743458687228
0.7560126002100036	-0.0014679495057038612
0.757012616876948	-0.0031652546335178833
0.7580126335438925	-0.004898158093082197
0.7590126502108369	-0.006656126214218782
0.7600126668777814	-0.0084276615123446
0.7610126835447258	-0.010205423681376072
0.7620127002116702	-0.012010020755318205
0.7630127168786147	-0.01387123355209525
0.7640127335455592	-0.01581788998994787
0.7650127502125036	-0.017877854172711868
0.7660127668794481	-0.020078026389817892
0.7670127835463925	-0.02244434311629146
0.768012800213337	-0.025001777012752982
0.7690128168802814	-0.02777433692541767
0.7700128335472258	-0.03078506788609592
0.7710128502141703	-0.03405232045684819
0.7720128668811147	-0.03757232163369792
0.7730128835480592	-0.04133288354452373
0.7740129002150037	-0.045320846191228774
0.7750129168819481	-0.04952208576131108
0.7760129335488926	-0.05392151462786344
0.777012950215837	-0.058503081349573834
0.7780129668827814	-0.06324977067072476
0.7790129835497259	-0.06814360352119392
0.7800130002166703	-0.07316563701645366
0.7810130168836148	-0.07829990558375372
0.7820130335505593	-0.08355193654476312
0.7830130502175037	-0.08893423572705705
0.7840130668844482	-0.09445835431744706
0.7850130835513925	-0.10013487968833965
0.786013100218337	-0.10597343539773614
0.7870131168852815	-0.11198268118923267
0.7880131335522259	-0.11817031299202033
0.7890131502191704	-0.12454306292088516
0.7900131668861148	-0.13110669927620802
0.7910131835530593	-0.13786165047781362
0.7920132002200038	-0.14478233119378375
0.7930132168869481	-0.1518717264537669
0.7940132335538926	-0.1589563690652049
0.7950132502208371	-0.16574881233762065
0.7960132668877815	-0.17197700885428716
0.797013283554726	-0.1773843104722274
0.7980133002216704	-0.18172946832221448
0.7990133168886149	-0.18478663280877128
0.8000133335555594	-0.18634535361017104
0.8010133502225038	-0.1862138656764333
0.8020133668894482	-0.18423470305971693
0.8030133835563926	-0.1802725704059692
0.8040134002233371	-0.1742075972735417
0.8050134168902816	-0.16593531105563106
0.806013433557226	-0.15536663827344527
0.8070134502241705	-0.1424279047219421
0.808013466891115	-0.12706083546982988
0.8090134835580594	-0.10922255485956625
0.8100135002250038	-0.08888558650735942
0.8110135168919482	-0.06603551799075785
0.8120135335588927	-0.04065984407939682
0.8130135502258372	-0.012756624272106538
0.8140135668927816	0.017660688840058985
0.8150135835597261	0.05056324339229547
0.8160136002266705	0.08590678824604911
0.817013616893615	0.12363167298901513
0.8180136335605594	0.16366284793513985
0.8190136502275038	0.20590986412461923
0.8200136668944483	0.25026687332389885
0.8210136835613928	0.2966108134985425
0.8220137002283372	0.3447926915396464
0.8230137168952817	0.3946443248079688
0.8240137335622261	0.4459821263817865
0.8250137502291706	0.4986071100656261
0.826013766896115	0.5523048903902653
0.8270137835630594	0.6068814247427741
0.8280138002300039	0.6619402523680901
0.8290138168969483	0.7166895269337648
0.8300138335638928	0.7703709258983598
0.8310138502308373	0.8222823974385264
0.8320138668977817	0.8717805473053193
0.8330138835647262	0.9182787992245891
0.8340139002316705	0.9612463549945549
0.835013916898615	1.000208193064185
0.8360139335655595	1.0347450685332147
0.8370139502325039	1.0644935131521451
0.8380139668994484	1.0891458353222414
0.8390139835663929	1.1084501200955328
0.8400140002333373	1.122210229174811
0.8410140169002818	1.130286612228262
0.8420140335672262	1.132600248299309
0.8430140502341706	1.1291296184581114
0.8440140669011151	1.119908982857883
0.8450140835680595	1.1050283783026005
0.846014100235004	1.0846336182470038
0.8470141169019484	1.0589262927965992
0.8480141335688929	1.0281637687076552
0.8490141502358374	0.9926591893872055
0.8500141669027818	0.9527814748930465
0.8510141835697262	0.9089548748886843
0.8520142002366707	0.8616243531523761
0.8530142169036151	0.8111669868391207
0.8540142335705596	0.7581502892619157
0.855014250237504	0.7031414798507648
0.8560142669044485	0.6466774154516918
0.857014283571393	0.5892645903267425
0.8580143002383374	0.5313791361539832
0.8590143169052818	0.4734668220275009
0.8600143335722262	0.41594305445740415
0.8610143502391707	0.35919138509310183
0.8620143669061152	0.3035561798836226
0.8630143835730596	0.24934821122043824
0.8640144002400041	0.19684788406024123
0.8650144169069485	0.1463052407757463
0.866014433573893	0.0979399611556877
0.8670144502408375	0.051941362404821806
0.8680144669077818	0.008468399143925337
0.8690144835747263	-0.03235033659020365
0.8700145002416708	-0.07041661534474607
0.8710145169086152	-0.10565904338196483
0.8720145335755597	-0.13801564005169914
0.8730145502425041	-0.1674470823646447
0.8740145669094486	-0.1939443979848897
0.8750145835763931	-0.21752897716050001
0.8760146002433374	-0.23825257272352204
0.8770146169102819	-0.2561407078688116
0.8780146335772263	-0.27080136642962477
0.8790146502441708	-0.28231762516584713
0.8800146669111153	-0.29090455103553176
0.8810146835780597	-0.29677408323590426
0.8820147002450042	-0.30015841703805474
0.8830147169119487	-0.30129228903667066
0.884014733578893	-0.3004026173281253
0.8850147502458375	-0.29770848494572777
0.8860147669127819	-0.29342113985972257
0.8870147835797264	-0.28774399497729
0.8880148002466709	-0.2808726281425458
0.8890148169136153	-0.27299478213654144
0.8900148335805598	-0.264290364677264
0.8910148502475042	-0.2549256714830587
0.8920148669144486	-0.24502452869141547
0.8930148835813931	-0.2346900784496597
0.8940149002483375	-0.22401760670296073
0.895014916915282	-0.21309456433342325
0.8960149335822265	-0.20200056716008774
0.8970149502491709	-0.19080739593893037
0.8980149669161154	-0.1795789963628628
0.8990149835830598	-0.16837147906173214
0.9000150002500042	-0.15723311960232159
0.9010150169169487	-0.14621135928719622
0.9020150335838931	-0.1353879701625395
0.9030150502508376	-0.12485257014831531
0.904015066917782	-0.11468693933960288
0.9050150835847265	-0.10496502156441909
0.906015100251671	-0.09575292558771718
0.9070151169186154	-0.08710892511138545
0.9080151335855599	-0.07908345877424877
0.9090151502525042	-0.0717191301520662
0.9100151669194487	-0.06505070775753329
0.9110151835863932	-0.05909782879909869
0.9120152002533376	-0.05382814412473796
0.9130152169202821	-0.04918494764531335
0.9140152335872266	-0.04510366937085595
0.915015250254171	-0.04151190424833344
0.9160152669211155	-0.03829761204558488
0.9170152835880598	-0.03530584849630461
0.9180153002550043	-0.03248494204187642
0.9190153169219488	-0.029789345090870466
0.9200153335888932	-0.02717378081991713
0.9210153502558377	-0.024600595936138246
0.9220153669227821	-0.022077108507780555
0.9230153835897266	-0.019627707257625266
0.9240154002566711	-0.01727708186337315
0.9250154169236154	-0.01505019277078463
0.9260154335905599	-0.012972271193680138
0.9270154502575044	-0.011068819113940375
0.9280154669244488	-0.009365609281505625
0.9290154835913933	-0.00788868521437635
0.9300155002583377	-0.006664361198613025
0.9310155169252822	-0.0057110771947433215
0.9320155335922267	-0.004997795578239192
0.933015550259171	-0.004474971560267093
0.9340155669261155	-0.004093296396955922
0.9350155835930599	-0.003803732112495012
0.9360156002600044	-0.0035575114991335754
0.9370156169269489	-0.003306138117180782
0.9380156335938933	-0.003001386295005737
0.9390156502608378	-0.0025953011290372275
0.9400156669277822	-0.00204019848376473
0.9410156835947266	-0.0012968916889388733
0.9420157002616711	-0.0003769460170384327
0.9430157169286155	0.000688665516412469
0.94401573359556	0.0018686627232373648
0.9450157502625045	0.0031314946471994814
0.9460157669294489	0.004445339564002557
0.9470157835963934	0.005778104981289924
0.9480158002633378	0.007097427638645232
0.9490158169302823	0.008370673507591951
0.9500158335972267	0.009564937791593677
0.9510158502641711	0.01065415312610363
0.9520158669311156	0.01165580278776647
0.95301588359806	0.012603783421321358
0.9540159002650045	0.013531753543819951
0.955015916931949	0.014473100904254138
0.9560159335988934	0.015460942483555527
0.9570159502658379	0.01652812449459612
0.9580159669327823	0.017707222382187682
0.9590159835997267	0.019030540823081952
0.9600160002666712	0.02053011372597085
0.9610160169336156	0.022231686276150842
0.9620160336005601	0.02412345941607092
0.9630160502675046	0.02617911086809325
0.964016066934449	0.028372018920404966
0.9650160836013935	0.030675291093133022
0.9660161002683378	0.03306176413834461
0.9670161169352823	0.035504004040046826
0.9680161336022268	0.037974306014186915
0.9690161502691712	0.04044469450865198
0.9700161669361157	0.042886923203269214
0.9710161836030601	0.045277149395253756
0.9720162002700046	0.0476203467621649
0.9730162169369491	0.04993238843914788
0.9740162336038934	0.05222889988368751
0.9750162502708379	0.0545252357852084
0.9760162669377824	0.05683648006507522
0.9770162836047268	0.059177445876592835
0.9780163002716713	0.061562675605006154
0.9790163169386157	0.06400644086749994
0.9800163336055602	0.06652274251319888
0.9810163502725047	0.06912306429097098
0.982016366939449	0.07180856870162089
0.9830163836063935	0.07459720151900888
0.9840164002733379	0.07748957413864399
0.9850164169402824	0.08048229484673215
0.9860164336072269	0.08357190737244719
0.9870164502741713	0.08675489088793037
0.9880164669411158	0.09002766000829011
0.9890164836080603	0.09338656479160282
0.9900165002750047	0.09682789073891192
0.9910165169419491	0.10034719661618882
0.9920165336088935	0.10393581745619625
0.993016550275838	0.10758341269357928
0.9940165669427825	0.11127957369151804
0.9950165836097269	0.11501382725615941
0.9960166002766714	0.11877563563661837
0.9970166169436158	0.12255439652497752
0.9980166336105603	0.1263394430562861
0.9990166502775047	0.1301200438085619
1.0000166669444492	0.1338854028027894
1.0010166836113936	0.13762794535550782
1.002016700278338	0.14136076729163516
1.0030167169452826	0.14510495206959684
1.004016733612227	0.14888151486567786
1.0050167502791714	0.15271139737592587
1.0060167669461157	0.15661547216723995
1.0070167836130604	0.1606145471763129
1.0080168002800047	0.16472936578280178
1.0090168169469491	0.16898060680933474
1.0100168336138937	0.17338888452150344
1.011016850280838	0.1779697368785668
1.0120168669477825	0.18270686240260878
1.013016883614727	0.18757148091399098
1.0140169002816715	0.1925347191311972
1.0150169169486158	0.19756763921568263
1.0160169336155604	0.20264123877186574
1.0170169502825048	0.2077264508471366
1.0180169669494492	0.21279414393184895
1.0190169836163936	0.21781512195932762
1.0200170002833382	0.22276012430586112
1.0210170169502826	0.22760422518084056
1.022017033617227	0.2323504576101306
1.0230170502841716	0.23701278564514347
1.024017066951116	0.2416051347264053
1.0250170836180603	0.24614136573741346
1.026017100285005	0.250635275004632
1.0270171169519493	0.2551005942974898
1.0280171336188937	0.2595509908283872
1.0290171502858383	0.264000067252688
1.0300171669527827	0.2684613616687273
1.031017183619727	0.27294670967027324
1.0320172002866714	0.2774573998425595
1.033017216953616	0.28199052550661163
1.0340172336205604	0.2865431054263935
1.0350172502875048	0.2911120938088324
1.0360172669544494	0.29569438030382694
1.0370172836213938	0.3002867900042391
1.0380173002883382	0.3048860834459028
1.0390173169552828	0.309488956607615
1.0400173336222271	0.31409204091114423
1.0410173502891715	0.31869192002756996
1.0420173669561161	0.3232852211328782
1.0430173836230605	0.32786854961183615
1.044017400290005	0.33243844639837056
1.0450174169569493	0.336991387869372
1.0460174336238939	0.3415237858447021
1.0470174502908383	0.34603257185562825
1.0480174669577826	0.35052279965298155
1.0490174836247272	0.3549932553409314
1.0500175002916716	0.3594397492405131
1.051017516958616	0.3638568875260373
1.0520175336255606	0.3682309019769946
1.053017550292505	0.372544761666585
1.0540175669594494	0.3767815361508104
1.055017583626394	0.38092440405317146
1.0560176002933384	0.3849566530646743
1.0570176169602827	0.38886167994382315
1.0580176336272271	0.39262299051662747
1.0590176502941717	0.39622419967659606
1.060017666961116	0.3996490313847419
1.0610176836280605	0.4028871372642857
1.062017700295005	0.4059660435237976
1.0630177169619495	0.40892845986485377
1.0640177336288938	0.411817244400645
1.0650177502958385	0.4146753643118611
1.0660177669627828	0.41754589584669655
1.0670177836297272	0.4204720243208451
1.0680178002966716	0.4234970441175048
1.0690178169636162	0.42666435868737335
1.0700178336305606	0.4300174805486528
1.071017850297505	0.43358620820944055
1.0720178669644496	0.43731030800940274
1.073017883631394	0.4410935203907814
1.0740179002983383	0.44483959820784996
1.075017916965283	0.44845240338238285
1.0760179336322273	0.4518359069036584
1.0770179502991717	0.4548941888284546
1.0780179669661163	0.4575314382810527
1.0790179836330607	0.4596519534532352
1.080018000300005	0.46116014160428737
1.0810180169669494	0.46197938413565826
1.082018033633894	0.46215677205981415
1.0830180503008384	0.46178926565310263
1.0840180669677828	0.46097407063308793
1.0850180836347274	0.4598085017848351
1.0860181003016718	0.4583899829609122
1.0870181169686162	0.45681604708138873
1.0880181336355608	0.45518433613383547
1.0890181503025052	0.45359260117332617
1.0900181669694495	0.4521387023224361
1.0910181836363941	0.45090536569591116
1.0920182003033385	0.4498750852925004
1.093018216970283	0.44898989490090174
1.0940182336372273	0.4481918234867767
1.0950182503041719	0.4474230090832888
1.0960182669711163	0.4466256987911032
1.0970182836380606	0.445742248778387
1.0980183003050052	0.4447151242808091
1.0990183169719496	0.44348689960154114
1.100018333638894	0.44200025811125554
1.1010183503058386	0.4402082143991281
1.102018366972783	0.43813149971890625
1.1030183836397274	0.4358184109246361
1.104018400306672	0.4333174443040849
1.1050184169736164	0.4306772068528178
1.1060184336405607	0.4279464146339007
1.1070184503075051	0.42517389277790185
1.1080184669744497	0.4224085754828912
1.109018483641394	0.4196995060144415
1.1100185003083385	0.4170958367056256
1.111018516975283	0.41463631695720155
1.1120185336422275	0.4122899519867016
1.1130185503091719	0.40999737124466973
1.1140185669761165	0.4076992294051864
1.1150185836430608	0.40533629020983725
1.1160186003100052	0.4028494264677066
1.1170186169769498	0.4001796200553836
1.1180186336438942	0.3972679619169561
1.1190186503108386	0.394055652064018
1.120018666977783	0.3904839995756606
1.1210186836447276	0.38650595060089493
1.122018700311672	0.38215123757854896
1.1230187169786163	0.37747266841906313
1.124018733645561	0.37252832325215474
1.1250187503125053	0.36738055168891465
1.1260187669794497	0.36209163988641774
1.1270187836463943	0.35672381054773306
1.1280188003133387	0.351339222921914
1.129018816980283	0.34599997280400807
1.1300188336472277	0.34076809253504775
1.131018850314172	0.3356985954958095
1.1320188669811164	0.33079977302371694
1.1330188836480608	0.32606066353951163
1.1340189003150054	0.32147018284279993
1.1350189169819498	0.31701718327918116
1.1360189336488942	0.31269045374024
1.1370189503158388	0.3084787196635544
1.1380189669827832	0.3043706430326873
1.1390189836497275	0.3003548223771954
1.1400190003166721	0.2964197927726199
1.1410190169836165	0.2925503863106325
1.142019033650561	0.2887068414012266
1.1430190503175053	0.2848392012840435
1.1440190669844499	0.28089741378285316
1.1450190836513943	0.2768313632674194
1.1460191003183386	0.2725908706534907
1.1470191169852832	0.268125693402809
1.1480191336522276	0.26338552552310124
1.149019150319172	0.25831999756808816
1.1500191669861166	0.25287867663747504
1.151019183653061	0.24702672530989225
1.1520192003200054	0.24083528367511162
1.15301921698695	0.23441941332166497
1.1540192336538944	0.22789425431854463
1.1550192503208387	0.22137488328073146
1.1560192669877831	0.21497631336920017
1.1570192836547277	0.20881349429090926
1.158019300321672	0.20300131229881094
1.1590193169886165	0.1976545901918426
1.160019333655561	0.19288808731493498
1.1610193503225055	0.18879380432923545
1.1620193669894499	0.18530925859796255
1.1630193836563945	0.18230757879793325
1.1640194003233388	0.17966161787389986
1.1650194169902832	0.17724416531660067
1.1660194336572278	0.17492794716276724
1.1670194503241722	0.17258562599511632
1.1680194669911166	0.17008980094235696
1.169019483658061	0.16731300767918494
1.1700195003250056	0.16412771842628798
1.17101951699195	0.16042696972875065
1.1720195336588943	0.15624475438802174
1.173019550325839	0.15167399531818473
1.1740195669927833	0.146807751035298
1.1750195836597277	0.14173901660140575
1.1760196003266723	0.1365607236245454
1.1770196169936167	0.13136574025873965
1.178019633660561	0.1262468712040038
1.1790196503275057	0.12129685770633908
1.18001966699445	0.11660837755773969
1.1810196836613944	0.1122611680811518
1.1820197003283388	0.10824645204615226
1.1830197169952834	0.10451822896242173
1.1840197336622278	0.1010303067118008
1.1850197503291722	0.09773642972211648
1.1860197669961168	0.09459027896718748
1.1870197836630612	0.09154547196681907
1.1880198003300055	0.0885555627868086
1.1890198169969501	0.08557404203893991
1.1900198336638945	0.08255433688098843
1.191019850330839	0.07945664984938836
1.1920198669977835	0.07628831899805413
1.1930198836647279	0.07307653239441181
1.1940199003316723	0.06984848485207108
1.1950199169986166	0.06663130773062799
1.1960199336655613	0.06345206893567018
1.1970199503325056	0.06033777291877227
1.19801996699945	0.05731796440777851
1.1990199836663946	0.054424211027403746
1.200020000333339	0.05168278737896718
1.2010200170002834	0.04911601073089394
1.202020033667228	0.046719646494068276
1.2030200503341724	0.044478212966475424
1.2040200670011167	0.042376186715854185
1.2050200836680613	0.04039805467212344
1.2060201003350057	0.03852832525515404
1.20702011700195	0.036751519837599604
1.2080201336688945	0.035052169974066204
1.209020150335839	0.03341481740110843
1.2100201670027835	0.03182401403723309
1.2110201836697279	0.030265830840347455
1.2120202003366725	0.028736862017710287
1.2130202170036168	0.027238185263230602
1.2140202336705612	0.025770904914950585
1.2150202503375058	0.024336135492861136
1.2160202670044502	0.022935001698904788
1.2170202836713946	0.02156863841697351
1.218020300338339	0.020238190712910494
1.2190203170052836	0.018944813834508124
1.220020333672228	0.017689673211510614
1.2210203503391723	0.01647445326503135
1.222020367006117	0.015304410685525714
1.2230203836730613	0.014186334448708444
1.2240204003400057	0.013127029433721888
1.2250204170069503	0.012133310701657338
1.2260204336738947	0.011212003495557786
1.227020450340839	0.01036994324041543
1.2280204670077837	0.009613975543173708
1.229020483674728	0.008950956192725758
1.2300205003416724	0.00838775115991558
1.2310205170086168	0.007928073151844083
1.2320205336755614	0.00755339250051448
1.2330205503425058	0.00723564069977977
1.2340205670094502	0.006946722769543088
1.2350205836763948	0.006658553911656866
1.2360206003433392	0.006343059509925135
1.2370206170102835	0.005972175130101155
1.2380206336772281	0.005517846519889534
1.2390206503441725	0.004952029608944242
1.240020667011117	0.004246690508870417
1.2410206836780615	0.0033797188452456967
1.242020700345006	0.0023708093803304076
1.2430207170119503	0.0012576781843684666
1.2440207336788947	7.81221030484898e-05
1.2450207503458393	-0.001130051835991193
1.2460207670127836	-0.0023290264231610267
1.247020783679728	-0.0034809742669218912
1.2480208003466726	-0.00454805779378393
1.249020817013617	-0.005492429248307198
1.2500208336805614	-0.0062762306931010686
1.251020850347506	-0.006867730885832658
1.2520208670144504	-0.007278770991461211
1.2530208836813947	-0.007540043090328614
1.2540209003483394	-0.00768230454631881
1.2550209170152837	-0.00773630254136554
1.2560209336822281	-0.007732774075452085
1.2570209503491725	-0.00770244596661154
1.258020967016117	-0.007676034850926586
1.2590209836830615	-0.0076842471825295895
1.2600210003500059	-0.0077577792336022515
1.2610210170169505	-0.007922367905189982
1.2620210336838948	-0.008168423579166886
1.2630210503508392	-0.008470997977738285
1.2640210670177838	-0.008805069961779915
1.2650210836847282	-0.009145608210217432
1.2660211003516726	-0.00946757122002593
1.2670211170186172	-0.009745907306230116
1.2680211336855616	-0.00995555460190458
1.269021150352506	-0.01007144105817344
1.2700211670194503	-0.010068484444210195
1.271021183686395	-0.009926719963757515
1.2720212003533393	-0.009662937685456497
1.2730212170202837	-0.009309963219601376
1.2740212336872283	-0.008900678862514808
1.2750212503541727	-0.008467956728569266
1.276021267021117	-0.0080446587501865
1.2770212836880617	-0.007663636677838365
1.278021300355006	-0.007357732080045941
1.2790213170219504	-0.00715977634338015
1.2800213336888948	-0.00710259067246149
1.2810213503558394	-0.007213068518137956
1.2820213670227838	-0.007475460421397203
1.2830213836897282	-0.00785532141680054
1.2840214003566728	-0.008318116909151439
1.2850214170236172	-0.008829302121303737
1.2860214336905615	-0.00935432209415999
1.2870214503575061	-0.009858611686672817
1.2880214670244505	-0.010307595575844618
1.289021483691395	-0.010666688256727043
1.2900215003583395	-0.01090129404242196
1.291021517025284	-0.010981772311279014
1.2920215336922283	-0.01091441593560774
1.2930215503591727	-0.010721327812708075
1.2940215670261173	-0.010424669276227413
1.2950215836930616	-0.010046591477862889
1.296021600360006	-0.009609235387360974
1.2970216170269506	-0.00913473179251849
1.298021633693895	-0.008645201299181124
1.2990216503608394	-0.00816275433124473
1.300021667027784	-0.007709491130654548
1.3010216836947284	-0.007305452083070074
1.3020217003616728	-0.006955758322089798
1.3030217170286174	-0.006658929579202236
1.3040217336955617	-0.006413437230575597
1.3050217503625061	-0.00621773897553558
1.3060217670294505	-0.006070282323826234
1.307021783696395	-0.00596950460324091
1.3080218003633395	-0.005913832959622804
1.3090218170302839	-0.00590168435686465
1.3100218336972285	-0.005931465576909095
1.3110218503641728	-0.005999965934311033
1.3120218670311172	-0.006092217078006411
1.3130218836980618	-0.006188026184021553
1.3140219003650062	-0.006267166723399819
1.3150219170319506	-0.0063094019852346275
1.3160219336988952	-0.006294410071861909
1.3170219503658396	-0.006201496123919148
1.318021967032784	-0.006010489524094838
1.3190219836997283	-0.005701319332855536
1.320022000366673	-0.005253909426351146
1.3210220170336173	-0.004653591500089827
1.3220220337005617	-0.003925445841978707
1.3230220503675063	-0.003112267297976602
1.3240220670344507	-0.002256927034222949
1.325022083701395	-0.001402291032540499
1.3260221003683397	-0.000591220090436234
1.327022117035284	0.00013343017889920396
1.3280221337022284	0.0007288093465923524
1.329022150369173	0.0011520721680851782
1.3300221670361174	0.00136037858313642
1.3310221837030618	0.0013187498006952056
1.3320222003700062	0.0010501866557007513
1.3330222170369508	0.0006036455045239485
1.3340222337038952	2.8209568678997515e-05
1.3350222503708395	-0.0006270327460033039
1.3360222670377842	-0.001312987849376536
1.3370222837047285	-0.001980556966977488
1.338022300371673	-0.0025806361400263753
1.3390223170386175	-0.0030641162254277966
1.340022333705562	-0.0033818828957691578
1.3410223503725063	-0.0034921273760817697
1.3420223670394509	-0.003407246281928032
1.3430223837063953	-0.003163998865070049
1.3440224003733396	-0.0027992556540253444
1.345022417040284	-0.0023498819929949144
1.3460224337072286	-0.0018527380418638245
1.347022450374173	-0.0013446787762002844
1.3480224670411174	-0.000862553987256493
1.349022483708062	-0.00044320828196816025
1.3500225003750064	-0.00012348108295467519
1.3510225170419508	6.485715961113418e-05
1.3520225337088954	0.00012777171731349294
1.3530225503758397	8.826446138246544e-05
1.3540225670427841	-3.0574599873905766e-05
1.3550225837097285	-0.00020565027383168165
1.356022600376673	-0.00041386218355023597
1.3570226170436175	-0.000632104767772901
1.3580226337105619	-0.0008372672809262415
1.3590226503775065	-0.0010062337931206183
1.3600226670444509	-0.0011158831901502382
1.3610226837113952	-0.0011455328628972106
1.3620227003783398	-0.0010927911896892665
1.3630227170452842	-0.0009635549415664554
1.3640227337122286	-0.0007637568647561978
1.3650227503791732	-0.0004993245211693666
1.3660227670461176	-0.00017618028840070497
1.367022783713062	0.00019975864027155037
1.3680228003800063	0.0006225802558853649
1.369022817046951	0.001086377733795349
1.3700228337138953	0.0015852494336719058
1.3710228503808397	0.0021122620417533813
1.3720228670477843	0.0026526867508584
1.3730228837147287	0.0031882490521119343
1.374022900381673	0.003700661667573172
1.3750229170486177	0.004171642503616707
1.376022933715562	0.00458291465093442
1.3770229503825064	0.004916206384533739
1.378022967049451	0.005153251163739008
1.3790229837163954	0.0052757876321906745
1.3800230003833398	0.005265559617845482
1.3810230170502842	0.005108282810960909
1.3820230337172288	0.00481966565349811
1.3830230503841732	0.004429129554391425
1.3840230670511176	0.003966171704872
1.3850230837180622	0.003460294480487877
1.3860231003850065	0.0029410054411031254
1.387023117051951	0.002437817330897846
1.3880231337188955	0.0019802480783691224
1.38902315038584	0.0015978207963300538
1.3900231670527843	0.001320063781909936
1.3910231837197289	0.001172844797945636
1.3920232003866733	0.001154189897512637
1.3930232170536176	0.0012493476015276676
1.394023233720562	0.001443504565202292
1.3950232503875066	0.0017218526280642025
1.396023267054451	0.0020695888139574342
1.3970232837213954	0.002471915331042582
1.39802330038834	0.0029140395717964524
1.3990233170552844	0.00338117411301213
1.4000233337222288	0.0038585367157993747
1.4010233503891734	0.004332178235952672
1.4020233670561177	0.00479447456025678
1.4030233837230621	0.00524071876329207
1.4040234003900067	0.005666211556250623
1.405023417056951	0.006066250726244825
1.4060234337238955	0.006435981924004068
1.4070234503908399	0.006767155022394077
1.4080234670577845	0.007054767728319386
1.4090234837247289	0.007295704576445061
1.4100235003916732	0.0074868410669798255
1.4110235170586178	0.007626925578051251
1.4120235337255622	0.007729132907518276
1.4130235503925066	0.007813310938098242
1.4140235670594512	0.007899334859383378
1.4150235837263956	0.008007070826510075
1.41602360039334	0.008156375960157313
1.4170236170602846	0.008367098346547842
1.418023633727229	0.0086590770374476
1.4190236503941733	0.009052142050165905
1.4200236670611177	0.009566114367555167
1.4210236837280623	0.010217588631048616
1.4220237003950067	0.010998351476687852
1.423023717061951	0.011888653025470508
1.4240237337288957	0.012868670540077738
1.42502375039584	0.013918572248735009
1.4260237670627844	0.01501851734521005
1.427023783729729	0.016148655988815156
1.4280238003966734	0.017289129304404738
1.4290238170636178	0.018420069382377228
1.4300238337305622	0.019521599278674272
1.4310238503975068	0.02057715235586334
1.4320238670644512	0.02159586314109608
1.4330238837313956	0.02259885825323676
1.4340239003983402	0.02360732291171991
1.4350239170652845	0.024642433301524675
1.436023933732229	0.025725356573172452
1.4370239503991735	0.026877250842729013
1.438023967066118	0.028119265191802183
1.4390239837330623	0.029472539667544588
1.4400240004000069	0.030958205282650794
1.4410240170669513	0.032593858294943434
1.4420240337338956	0.03436964390407048
1.44302405040084	0.03626283512385093
1.4440240670677846	0.0382506221537669
1.445024083734729	0.040310186158844824
1.4460241004016734	0.04241869926965378
1.447024117068618	0.04455332458230674
1.4480241337355624	0.04669121615845908
1.4490241504025068	0.048809519025310916
1.4500241670694514	0.05088536917560411
1.4510241837363957	0.05289983551566084
1.4520242004033401	0.054864809526782465
1.4530242170702847	0.05680668611418649
1.454024233737229	0.05875193585443652
1.4550242504041735	0.0607270202896421
1.4560242670711179	0.06275839192745357
1.4570242837380625	0.06487249424106672
1.4580243004050069	0.06709576166921875
1.4590243170719512	0.06945461961619255
1.4600243337388958	0.07197548445181141
1.4610243504058402	0.07468189195535341
1.4620243670727846	0.07757479936895546
1.4630243837397292	0.08064448699396319
1.4640244004066736	0.08388116274317886
1.465024417073618	0.08727502549495134
1.4660244337405626	0.09081626509316959
1.467024450407507	0.09449506234726875
1.4680244670744513	0.0983016269733339
1.4690244837413957	0.10223897527145426
1.4700245004083403	0.1063014756015652
1.4710245170752847	0.11047137901839314
1.472024533742229	0.11473858711098932
1.4730245504091737	0.11909665960565223
1.474024567076118	0.12353922913509849
1.4750245837430624	0.12805997944581832
1.476024600410007	0.1326526453980695
1.4770246170769514	0.1373110129658832
1.4780246337438958	0.1420289192370576
1.4790246504108404	0.14680025241316547
1.4800246670777848	0.15161895180954546
1.4810246837447292	0.1564781610600092
1.4820247004116736	0.16136435398762547
1.4830247170786182	0.1662608521550901
1.4840247337455625	0.17115100855194834
1.485024750412507	0.17601822728151958
1.4860247670794515	0.18084596356088958
1.487024783746396	0.18561772372091917
1.4880248004133403	0.19031706520623495
1.489024817080285	0.19492759657523842
1.4900248337472293	0.19943297750009722
1.4910248504141737	0.20381954953369705
1.4920248670811183	0.20809468795225047
1.4930248837480626	0.2122758617693974
1.494024900415007	0.21638065388516348
1.4950249170819514	0.22042669831334927
1.496024933748896	0.2244316801815223
1.4970249504158404	0.22841333573102332
1.4980249670827848	0.23238945231696043
1.4990249837497294	0.23637786840821617
1.5000250004166737	0.24039647358743918
1.5010250170836181	0.24445962827538353
1.5020250337505627	0.24855304792733734
1.5030250504175071	0.25264870866010747
1.5040250670844515	0.25671857635359335
1.5050250837513959	0.26073469292386986
1.5060251004183405	0.2646691523811707
1.5070251170852849	0.268494099849503
1.5080251337522292	0.272181731566641
1.5090251504191738	0.27570429488413306
1.5100251670861182	0.2790340882672943
1.5110251837530626	0.28214609486749964
1.5120252004200072	0.2850365610055082
1.5130252170869516	0.2877120214099068
1.514025233753896	0.2901791280913043
1.5150252504208406	0.2924445841740817
1.516025267087785	0.29451514389638855
1.5170252837547293	0.29639761261014685
1.5180253004216737	0.2980988467810471
1.5190253170886183	0.29962575398855235
1.5200253337555627	0.3009852929258939
1.521025350422507	0.3021831891768881
1.5220253670894517	0.3032148247404362
1.523025383756396	0.30407059517158286
1.5240254004233404	0.3047409140356013
1.525025417090285	0.3052162460115348
1.5260254337572294	0.3054871068921979
1.5270254504241738	0.3055440635841751
1.5280254670911184	0.3053777341078216
1.5290254837580628	0.30497878759726266
1.5300255004250072	0.3043379443003948
1.5310255170919516	0.3034389102791913
1.5320255337588962	0.30226985404488543
1.5330255504258405	0.3008356630704283
1.534025567092785	0.29914122245509583
1.5350255837597295	0.29719124606759584
1.536025600426674	0.2949902765460715
1.5370256170936183	0.29254268529809846
1.538025633760563	0.2898526725006861
1.5390256504275073	0.2869242671002788
1.5400256670944517	0.2837613268127528
1.5410256837613963	0.28036884841778564
1.5420257004283406	0.2767623681067736
1.543025717095285	0.2729624848166232
1.5440257337622294	0.26898966179291695
1.545025750429174	0.2648641910506741
1.5460257670961184	0.2606061933743445
1.5470257837630628	0.25623561831781516
1.5480258004300074	0.25177224420440303
1.5490258170969518	0.24723567812686245
1.5500258337638961	0.24264535594737827
1.5510258504308407	0.23802001338205292
1.5520258670977851	0.23337387007078306
1.5530258837647295	0.22871884239457024
1.554025900431674	0.2240666607907864
1.5550259170986185	0.21942888446624148
1.5560259337655629	0.21481690139717471
1.5570259504325072	0.21024192832926325
1.5580259670994518	0.20571501077761387
1.5590259837663962	0.20124702302677144
1.5600260004333406	0.19684866813070986
1.5610260171002852	0.1925275831830354
1.5620260337672296	0.1882673372318709
1.563026050434174	0.18403955312092932
1.5640260671011186	0.17981559988755025
1.565026083768063	0.17556667533851064
1.5660261004350073	0.17126380605001737
1.567026117101952	0.1668778473677151
1.5680261337688963	0.16237948340667782
1.5690261504358407	0.15773922705141763
1.570026167102785	0.1529274199558759
1.5710261837697297	0.14792072348315674
1.572026200436674	0.14274947781125308
1.5730262171036185	0.1374704963050881
1.574026233770563	0.13214061095833005
1.5750262504375074	0.12681648253408428
1.5760262671044518	0.12155460056488665
1.5770262837713964	0.11641128335271067
1.5780263004383408	0.11144267796895882
1.5790263171052852	0.10670476025447198
1.5800263337722296	0.1022533348195206
1.5810263504391742	0.0981369451970003
1.5820263671061185	0.09434485321459851
1.583026383773063	0.09083678083560709
1.5840264004400075	0.08757206617823673
1.585026417106952	0.0845098761301346
1.5860264337738963	0.08160920634837893
1.587026450440841	0.07882888125948406
1.5880264671077853	0.07612755405939574
1.5890264837747297	0.0734637067134961
1.5900265004416743	0.0707956499565978
1.5910265171086186	0.06808671559434532
1.592026533775563	0.06534356920370882
1.5930265504425074	0.06259440996937388
1.594026567109452	0.059867425470309446
1.5950265837763964	0.057190632054921114
1.5960266004433408	0.05459187484104586
1.5970266171102854	0.05209882771595578
1.5980266337772298	0.049738993336355584
1.5990266504441741	0.04753970312838514
1.6000266671111187	0.04552899499914277
1.6010266837780631	0.043742174778567545
1.6020267004450075	0.042163295817583164
1.603026717111952	0.04075182204884879
1.6040267337788965	0.03946679472432613
1.6050267504458409	0.038266957769029
1.6060267671127852	0.0371107940827326
1.6070267837797299	0.03595653081164218
1.6080268004466742	0.03476213846917568
1.6090268171136186	0.03348532946258364
1.6100268337805632	0.032083558069574726
1.6110268504475076	0.03051980372930083
1.612026867114452	0.02880572794116111
1.6130268837813966	0.026977353387777014
1.614026900448341	0.025070631408955282
1.6150269171152853	0.023121255214962524
1.61602693378223	0.021164659886523513
1.6170269504491743	0.019236022374824382
1.6180269671161187	0.01737026150150829
1.619026983783063	0.015602037958679787
1.6200270004500077	0.013965754308901113
1.621027017116952	0.012488259057866422
1.6220270337838965	0.011134094158520402
1.623027050450841	0.009836200771867882
1.6240270671177854	0.00852702043969732
1.6250270837847298	0.007138736574258118
1.6260271004516744	0.005603274458257455
1.6270271171186188	0.003852301244863455
1.6280271337855632	0.0018172259577013002
1.6290271504525078	-0.0005708005091411639
1.6300271671194522	-0.0033808853911202613
1.6310271837863966	-0.00667531200163037
1.632027200453341	-0.01045609164475356
1.6330272171202855	-0.014694791475734804
1.63402723378723	-0.019362996575645768
1.6350272504541743	-0.024432550155094854
1.636027267121119	-0.029875553554234956
1.6370272837880633	-0.0356643662427559
1.6380273004550077	-0.04177160581989213
1.6390273171219523	-0.048170148014413904
1.6400273337888966	-0.054833126684637856
1.641027350455841	-0.06173964720082715
1.6420273671227856	-0.06888752831884604
1.64302738378973	-0.07621088009369169
1.6440274004566744	-0.08363452914319952
1.6450274171236188	-0.0910828481219462
1.6460274337905634	-0.09847969888606999
1.6470274504575078	-0.10574843249325754
1.6480274671244521	-0.1128118892027561
1.6490274837913967	-0.11959239847536177
1.6500275004583411	-0.12601177897343127
1.6510275171252855	-0.13198616057376453
1.65202753379223	-0.13738646247401035
1.6530275504591745	-0.1420602323620389
1.6540275671261189	-0.1458543227719652
1.6550275837930633	-0.14861507543945504
1.6560276004600079	-0.15018832130173207
1.6570276171269522	-0.1504193804975727
1.6580276337938966	-0.14915306236730877
1.6590276504608412	-0.14623366545282723
1.6600276671277856	-0.14150497749756805
1.66102768379473	-0.13481640687148289
1.6620277004616746	-0.12607004694564738
1.663027717128619	-0.11519479844784425
1.6640277337955633	-0.1021192749367636
1.665027750462508	-0.0867715791726606
1.6660277671294523	-0.06907930311733732
1.6670277837963967	-0.04896952793414783
1.668027800463341	-0.026368823988014833
1.6690278171302857	-0.0012609810573738466
1.67002783379723	0.026302612509654662
1.6710278504641745	0.05629476863965235
1.672027867131119	0.08871445772059383
1.6730278837980634	0.12356053569601504
1.6740279004650078	0.16080414928765718
1.6750279171319524	0.20038850479135725
1.6760279337988968	0.2422288680769804
1.6770279504658412	0.2862125645884918
1.6780279671327858	0.33219897934388076
1.6790279837997302	0.3800195569352409
1.6800280004666746	0.4294778015286854
1.681028017133619	0.4803468904576633
1.6820280338005635	0.5323511479452037
1.683028050467508	0.5851761294456388
1.6840280671344523	0.638479358674523
1.685028083801397	0.6918904189215213
1.6860281004683413	0.7450109530503128
1.6870281171352857	0.7974146634986891
1.6880281338022303	0.848647312278456
1.6890281504691746	0.8982267209755299
1.690028167136119	0.9456427707498446
1.6910281838030636	0.9903538368217464
1.692028200470008	1.031758951333658
1.6930282171369524	1.0692128790137552
1.6940282338038968	1.1020423044445906
1.6950282504708414	1.129512689080868
1.6960282671377858	1.151028626923534
1.6970282838047301	1.1665612442855033
1.6980283004716747	1.1761491484778783
1.6990283171386191	1.1798509711666454
1.7000283338055635	1.1777453683726562
1.701028350472508	1.1699372028568868
1.7020283671394525	1.156606086263019
1.7030283838063969	1.1379802245068726
1.7040284004733415	1.114308106749962
1.7050284171402859	1.0858582712842018
1.7060284338072302	1.0529192842142117
1.7070284504741746	1.0157997359994564
1.7080284671411192	0.9748282414543025
1.7090284838080636	0.9303534397479545
1.710028500475008	0.8827439944045239
1.7110285171419526	0.8323851148530582
1.712028533808897	0.7796510894625375
1.7130285504758413	0.7249200088189118
1.714028567142786	0.6685898449417254
1.7150285838097303	0.611078594205343
1.7160286004766747	0.5528242773390533
1.7170286171436193	0.4942849394269646
1.7180286338105637	0.43593864990810904
1.719028650477508	0.3782835025763374
1.7200286671444525	0.3218376155804258
1.721028683811397	0.26713768219539435
1.7220287004783414	0.21472746214217045
1.7230287171452858	0.1651024636795308
1.7240287338122304	0.11803637233853848
1.7250287504791748	0.0734560367317133
1.7260287671461192	0.031412602802265106
1.7270287838130638	-0.00805555766879093
1.7280288004800082	-0.04492284706255908
1.7290288171469526	-0.07917644192233358
1.730028833813897	-0.11081629295353296
1.7310288504808415	-0.13985080338918163
1.732028867147786	-0.1662623144485076
1.7330288838147303	-0.1900254149518607
1.734028900481675	-0.21112728176808
1.7350289171486193	-0.22956786592817793
1.7360289338155637	-0.24535989262530813
1.7370289504825083	-0.2585288612147931
1.7380289671494527	-0.2691130452140994
1.739028983816397	-0.27716349230285975
1.7400290004833416	-0.28274402432285495
1.741029017150286	-0.28593422778792216
1.7420290338172304	-0.28685347352212937
1.7430290504841748	-0.28564824123024285
1.7440290671511194	-0.2824779166131539
1.7450290838180638	-0.2775146595339067
1.7460291004850081	-0.27094340401770545
1.7470291171519527	-0.2629618582519054
1.7480291338188971	-0.25378050458602336
1.7490291504858415	-0.24362259953172555
1.7500291671527861	-0.23272417376284166
1.7510291838197305	-0.22129116435127366
1.7520292004866749	-0.20941856848979185
1.7530292171536195	-0.19723443792281253
1.7540292338205639	-0.18486151048384059
1.7550292504875082	-0.1724143458671794
1.7560292671544526	-0.15999932562795363
1.7570292838213972	-0.14771465318208649
1.7580293004883416	-0.1356503538063216
1.759029317155286	-0.12388827463820218
1.7600293338222306	-0.11250208467609119
1.761029350489175	-0.10155767506417156
1.7620293671561194	-0.09111641093992337
1.763029383823064	-0.08123343350911001
1.7640294004900083	-0.07195572432430503
1.7650294171569527	-0.06332208679888351
1.7660294338238973	-0.05536314620703778
1.7670294504908417	-0.04810134968376294
1.768029467157786	-0.04155096622487053
1.7690294838247305	-0.035718086686975764
1.770029500491675	-0.030600623787509024
1.7710295171586194	-0.02618554686396086
1.7720295338255638	-0.022426289269989033
1.7730295504925084	-0.01925448186442644
1.7740295671594528	-0.016593446675583757
1.7750295838263972	-0.014358327592577954
1.7760296004933418	-0.012456090365338738
1.7770296171602862	-0.010785522604603217
1.7780296338272306	-0.009238626790181325
1.7790296504941752	-0.007784335779919806
1.7800296671611195	-0.006404475184309422
1.781029683828064	-0.005053406028017056
1.7820297004950083	-0.0037110288262381863
1.783029717161953	-0.002371384776916754
1.7840297338288973	-0.001029431962086342
1.7850297504958417	0.000319084535164077
1.7860297671627863	0.001677632630687334
1.7870297838297307	0.0030488932392812107
1.788029800496675	0.004434760274685516
1.7890298171636196	0.00583634064958399
1.790029833830564	0.007253954275603687
1.7910298504975084	0.008686818668573279
1.792029867164453	0.010130442564667063
1.7930298838313974	0.011577964968542022
1.7940299004983418	0.013021722276015472
1.7950299171652861	0.014453263881847402
1.7960299338322308	0.015863352179742232
1.7970299504991751	0.0172419625623466
1.7980299671661195	0.018578283421251507
1.7990299838330641	0.01986071614699033
1.8000300005000085	0.021076875129040384
1.8010300171669529	0.022215903770505044
1.8020300338338975	0.02328772327515036
1.8030300505008419	0.024313197404434474
1.8040300671677862	0.025312519707353546
1.8050300838347306	0.026305094970942997
1.8060301005016752	0.027309540572828476
1.8070301171686196	0.02834368664742591
1.808030133835564	0.029424575388204616
1.8090301505025086	0.03056846175957165
1.810030167169453	0.03179081372487835
1.8110301838363974	0.033108823038418306
1.812030200503342	0.03453006142055789
1.8130302171702863	0.0360410442581471
1.8140302338372307	0.03762739940881917
1.8150302505041753	0.03927472472735298
1.8160302671711197	0.040968588065676194
1.817030283838064	0.042694527272862576
1.8180303005050085	0.04443805019513427
1.819030317171953	0.046184634675859315
1.8200303338388975	0.04791972855555481
1.8210303505058418	0.04963024623513446
1.8220303671727864	0.05131714979330258
1.8230303838397308	0.052989091309663644
1.8240304005066752	0.054654772161942956
1.8250304171736198	0.056322863725010934
1.8260304338405642	0.05800200737088732
1.8270304505075086	0.059700814468737554
1.8280304671744532	0.06142786638487585
1.8290304838413975	0.06319171448276216
1.830030500508342	0.06500088012300513
1.8310305171752863	0.06686391384616056
1.832030533842231	0.06878989575701688
1.8330305505091753	0.07078818407206812
1.8340305671761197	0.07286811021277506
1.8350305838430643	0.07503897559774374
1.8360306005100087	0.0773100516427296
1.837030617176953	0.07969057976063328
1.8380306338438976	0.08218977136150468
1.839030650510842	0.0848168078525391
1.8400306671777864	0.08758084063808112
1.841030683844731	0.09048948356747405
1.8420307005116754	0.09353599357022281
1.8430307171786198	0.0967056764726551
1.8440307338455642	0.09998372452181087
1.8450307505125088	0.10335529996187501
1.8460307671794531	0.10680553503418223
1.8470307838463975	0.11031953197721232
1.8480308005133421	0.11388236302659423
1.8490308171802865	0.11747907041510225
1.8500308338472309	0.12109466637266038
1.8510308505141755	0.12471484374640689
1.8520308671811199	0.1283320534269768
1.8530308838480642	0.13194248463562533
1.8540309005150089	0.13554233688226075
1.8550309171819532	0.13912777967393578
1.8560309338488976	0.1426984733108419
1.857030950515842	0.14625392068017468
1.8580309671827866	0.14978888568212936
1.859030983849731	0.1532981004366185
1.8600310005166754	0.15677627471056577
1.86103101718362	0.1602196303248953
1.8620310338505643	0.16363909930087991
1.8630310505175087	0.16705380339056627
1.8640310671844533	0.1704829309640377
1.8650310838513977	0.17394564803838133
1.866031100518342	0.17746109827769602
1.8670311171852865	0.1810484029930846
1.868031133852231	0.18472666114266117
1.8690311505191755	0.1885149493315439
1.8700311671861198	0.19243232181186268
1.8710311838530644	0.19649571793937126
1.8720312005200088	0.20070185965156906
1.8730312171869532	0.20503614361713698
1.8740312338538978	0.2094838200772744
1.8750312505208422	0.2140301169201844
1.8760312671877866	0.21866023968108214
1.8770312838547312	0.22335937154218605
1.8780313005216756	0.22811267333272653
1.87903131718862	0.2329052835289377
1.8800313338555643	0.2377223182540653
1.881031350522509	0.24254937454988912
1.8820313671894533	0.2473769092396349
1.8830313838563977	0.2521981004132749
1.8840314005233423	0.25700613432036545
1.8850314171902867	0.2617941748574663
1.886031433857231	0.2665553635681493
1.8870314505241756	0.2712828196429896
1.88803146719112	0.2759696399195746
1.8890314838580644	0.2806088988824951
1.890031500525009	0.28519364866335345
1.8910315171919534	0.289717728658755
1.8920315338588978	0.29418285046211784
1.8930315505258422	0.29859515792278374
1.8940315671927868	0.30296082272441033
1.8950315838597311	0.3072859941976583
1.8960316005266755	0.3115767993202005
1.8970316171936201	0.3158393427167134
1.8980316338605645	0.3200797066588851
1.8990316505275089	0.32430395106540744
1.9000316671944535	0.3285181135019838
1.9010316838613979	0.3327275734912757
1.9020317005283423	0.3369314575185182
1.9030317171952869	0.34112533963162917
1.9040317338622312	0.3453047328748618
1.9050317505291756	0.34946513795619133
1.90603176719612	0.3536020370192376
1.9070317838630646	0.3577108898617249
1.908031800530009	0.361787133928389
1.9090318171969534	0.36582618431097014
1.910031833863898	0.36982343374821924
1.9110318505308423	0.3737743717309918
1.9120318671977867	0.37767563885406696
1.9130318838647313	0.3815245209074836
1.9140319005316757	0.3853182890449045
1.91503191719862	0.3890541920669967
1.9160319338655647	0.3927294564214384
1.917031950532509	0.3963412862029118
1.9180319671994535	0.39988686315311056
1.9190319838663978	0.403363346660733
1.9200320005333424	0.40676787376148726
1.9210320172002868	0.4100974830340168
1.9220320338672312	0.41334843701101304
1.9230320505341758	0.416516545370087
1.9240320672011202	0.4195975903956248
1.9250320838680646	0.422587332019022
1.9260321005350092	0.4254815078186803
1.9270321172019536	0.42827583302001104
1.928032133868898	0.43096600049543105
1.9290321505358425	0.4335476807643669
1.930032167202787	0.436016521993251
1.9310321838697313	0.43836834607500985
1.9320322005366757	0.4406009045138191
1.9330322172036203	0.44271304594269706
1.9340322338705647	0.4447036099153457
1.935032250537509	0.4465715136073035
1.9360322672044536	0.4483180166146467
1.937032283871398	0.44994512823025457
1.9380323005383424	0.4514545571826049
1.939032317205287	0.4528480753775448
1.9400323338722314	0.45412751789828987
1.9410323505391758	0.4552937045025153
1.9420323672061202	0.4563367257374121
1.9430323838730648	0.4572405205408707
1.9440324005400091	0.4579890164059769
1.9450324172069535	0.4585662040031854
1.9460324338738981	0.45895613718032024
1.9470324505408425	0.45914293296257336
1.9480324672077869	0.4591107715525069
1.9490324838747315	0.45884389633005046
1.9500325005416759	0.4583266138525039
1.9510325172086203	0.4575473707394472
1.9520325338755649	0.45653568630006686
1.9530325505425092	0.4553448543491854
1.9540325672094536	0.45402852017172274
1.955032583876398	0.45264039222996805
1.9560326005433426	0.4512342421635792
1.957032617210287	0.4498639047895829
1.9580326338772314	0.4485832781023749
1.959032650544176	0.4474463232737193
1.9600326672111203	0.44650706465275
1.9610326838780647	0.44581092582145154
1.9620327005450093	0.4453157872720614
1.9630327172119537	0.4449287336330834
1.964032733878898	0.4445562865996406
1.9650327505458427	0.4441050310442254
1.966032767212787	0.4434816150166993
1.9670327838797315	0.44259274974429036
1.9680328005466758	0.44134520963159923
1.9690328172136204	0.4396458322605916
1.9700328338805648	0.43740151839060554
1.9710328505475092	0.434529808130182
1.9720328672144538	0.43105580634084334
1.9730328838813982	0.4270673436967596
1.9740329005483426	0.42265309507679516
1.9750329172152872	0.4179017985371814
1.9760329338822316	0.4129022553115195
1.977032950549176	0.4077433298107782
1.9780329672161205	0.4025139496232971
1.979032983883065	0.3973031055147825
1.9800330005500093	0.3921998514283126
1.9810330172169537	0.3872875110007874
1.9820330338838983	0.38259027449485117
1.9830330505508427	0.37809774958242737
1.984033067217787	0.3737991699410775
1.9850330838847317	0.369683832425729
1.986033100551676	0.36574109706868196
1.9870331172186204	0.3619603870796012
1.988033133885565	0.3583311888455244
1.9890331505525094	0.35484305193085425
1.9900331672194538	0.3514855890773664
1.9910331838863984	0.34824561911512397
1.9920332005533428	0.34508067769311124
1.9930332172202871	0.34193111848294955
1.9940332338872315	0.3387371380494371
1.9950332505541761	0.3354389961347354
1.9960332672211205	0.33197701565837906
1.997033283888065	0.3282915827172686
1.9980333005550095	0.3243231465856761
1.9990333172219539	0.320012219715239
2.0000333338888985	0.31529937773496824
2.0010333505558426	0.3101328356764359
2.0020333672227872	0.3045390994645642
2.003033383889732	0.2985908945834773
2.004033400556676	0.29236160329145244
2.0050334172236206	0.28592463725297906
2.006033433890565	0.27935345108867443
2.0070334505575094	0.2727215623592642
2.008033467224454	0.2661025537923844
2.0090334838913986	0.25957007428650725
2.0100335005583427	0.25319783616469727
2.0110335172252873	0.24705463219854326
2.0120335338922315	0.241157598645679
2.013033550559176	0.2354932952484445
2.0140335672261207	0.2300479439297665
2.015033583893065	0.2248056885121054
2.0160336005600095	0.21974385290021498
2.017033617226954	0.21484568485081446
2.0180336338938982	0.2100950784779539
2.019033650560843	0.20547587783711294
2.0200336672277874	0.20097187692518678
2.0210336838947316	0.19656667158267646
2.022033700561676	0.1922422622594546
2.023033717228621	0.187979680153597
2.024033733895565	0.1837598942290127
2.0250337505625096	0.17956382339103497
2.026033767229454	0.1753723364864172
2.0270337838963983	0.1711662523033432
2.028033800563343	0.16692633957141179
2.0290338172302875	0.1626333169616477
2.0300338338972317	0.1582678530864958
2.0310338505641763	0.15381295763817399
2.032033867231121	0.14927667246809234
2.033033883898065	0.14468196918982468
2.0340339005650097	0.14005197016934165
2.0350339172319543	0.13540974771404177
2.0360339338988984	0.1307783240727412
2.037033950565843	0.12618067143568018
2.038033967232787	0.12163971193452024
2.039033983899732	0.11717831764235113
2.0400340005666764	0.11281931057367935
2.0410340172336205	0.10858381290360054
2.042034033900565	0.10447549955480372
2.0430340505675098	0.10048756321976854
2.044034067234454	0.09661300501003504
2.0450340839013985	0.09284477597856816
2.046034100568343	0.0891757771197536
2.0470341172352873	0.08559885936940481
2.048034133902232	0.08210682360475295
2.0490341505691765	0.07869242064445375
2.0500341672361206	0.07534835124858544
2.0510341839030652	0.07206786592636212
2.05203420057001	0.06885052371180528
2.053034217236954	0.0656996619150479
2.0540342339038986	0.06261862034115215
2.055034250570843	0.05961068873660143
2.0560342672377874	0.05667910678930585
2.057034283904732	0.05382706412859429
2.0580343005716766	0.051057700325219516
2.0590343172386207	0.04837410489135598
2.0600343339055653	0.04577931728060458
2.0610343505725095	0.043275517103507334
2.062034367239454	0.040856203792088354
2.0630343839063987	0.03850960973536808
2.064034400573343	0.036223844799338156
2.0650344172402875	0.033986968791409285
2.066034433907232	0.03178699146041623
2.0670344505741762	0.029611872496614965
2.068034467241121	0.02744952153168795
2.0690344839080654	0.025287798138736804
2.0700345005750096	0.023114511832287295
2.071034517241954	0.020918997000923947
2.072034533908899	0.01870741174515457
2.073034550575843	0.01649610569265246
2.0740345672427876	0.01430152234504496
2.075034583909732	0.012140055145380014
2.0760346005766763	0.010028047478132036
2.077034617243621	0.007981792669194951
2.0780346339105655	0.0060175339858863424
2.0790346505775097	0.004151464636946001
2.0800346672444543	0.002399727772538429
2.081034683911399	0.0007767619537375674
2.082034700578343	-0.0007208652912332456
2.0830347172452877	-0.0021074966985158558
2.0840347339122323	-0.003397679477622326
2.0850347505791764	-0.004606010896643925
2.086034767246121	-0.005747138282248265
2.087034783913065	-0.006835759019681186
2.08803480058001	-0.007886620552763658
2.0890348172469544	-0.008914520383895922
2.0900348339138985	-0.009934306074054886
2.091034850580843	-0.01095991002618072
2.0920348672477878	-0.011994862886581664
2.093034883914732	-0.013035864503607072
2.0940349005816765	-0.014075007264889652
2.095034917248621	-0.01510743039351077
2.0960349339155653	-0.01612942438238848
2.09703495058251	-0.017137267870521385
2.0980349672494545	-0.018127227642987923
2.0990349839163986	-0.019095558630946283
2.1000350005833432	-0.020038503911633282
2.101035017250288	-0.02095282410645772
2.102035033917232	-0.021841031178583246
2.1030350505841766	-0.02270916578653227
2.104035067251121	-0.02356330640173263
2.1050350839180654	-0.024409482381712172
2.10603510058501	-0.025253676704960988
2.1070351172519546	-0.026101859192802373
2.1080351339188987	-0.02695998781263831
2.1090351505858433	-0.027834008677951216
2.110035167252788	-0.028729856048303297
2.111035183919732	-0.02965177768199771
2.1120352005866767	-0.03058568118131604
2.113035217253621	-0.03150615708426926
2.1140352339205655	-0.03238761767748927
2.11503525058751	-0.033204463393688266
2.1160352672544542	-0.033931082811657534
2.117035283921399	-0.034541852656268225
2.1180353005883434	-0.03501113779847149
2.1190353172552876	-0.035313291255297974
2.120035333922232	-0.035422654189857704
2.121035350589177	-0.0353183958707944
2.122035367256121	-0.035032928948904606
2.1230353839230656	-0.03463163546796473
2.12403540059001	-0.0341803766256365
2.1250354172569543	-0.033745001765661614
2.126035433923899	-0.0333913483778609
2.1270354505908435	-0.03318524209813546
2.1280354672577877	-0.033192496708465705
2.1290354839247323	-0.03347891413691174
2.130035500591677	-0.03411028445761345
2.131035517258621	-0.03514397861081278
2.1320355339255657	-0.03654435166922601
2.1330355505925103	-0.03821791674328291
2.1340355672594544	-0.040070304320717814
2.135035583926399	-0.042007133035343334
2.136035600593343	-0.04393400966705158
2.137035617260288	-0.04575652914181616
2.1380356339272324	-0.04738027453168864
2.1390356505941766	-0.0487108170548006
2.140035667261121	-0.04965371607536423
2.1410356839280658	-0.05012320564795019
2.14203570059501	-0.050130118111811464
2.1430357172619545	-0.04974558846171444
2.144035733928899	-0.04904165832474864
2.1450357505958433	-0.048090357474082704
2.146035767262788	-0.04696370382896556
2.1470357839297325	-0.04573370345472584
2.1480358005966766	-0.04447235056277103
2.1490358172636213	-0.043251627510589634
2.150035833930566	-0.04214350480174835
2.15103585059751	-0.04121524906264604
2.1520358672644546	-0.04048165011932338
2.153035883931399	-0.03992459969532472
2.1540359005983434	-0.03952547120398926
2.155035917265288	-0.039265626204735664
2.1560359339322326	-0.03912641440306208
2.1570359505991767	-0.03908917365054668
2.1580359672661213	-0.03913522994484688
2.159035983933066	-0.0392458974297004
2.16003600060001	-0.039402478394924195
2.1610360172669547	-0.03958709763949935
2.162036033933899	-0.03979124808006122
2.1630360506008435	-0.04001231403867075
2.164036067267788	-0.040247759916437684
2.1650360839347322	-0.04049503826055141
2.166036100601677	-0.040751589764281296
2.1670361172686214	-0.0410148432669762
2.1680361339355656	-0.04128221575406458
2.16903615060251	-0.04155111235705474
2.170036167269455	-0.04181892635353467
2.171036183936399	-0.04208268997942762
2.1720362006033436	-0.04233547352145538
2.173036217270288	-0.04256672797107294
2.1740362339372323	-0.04276629299514148
2.175036250604177	-0.04292499725923282
2.1760362672711215	-0.04303366211296777
2.1770362839380657	-0.043083101590016375
2.1780363006050103	-0.04306412240809765
2.179036317271955	-0.04296752396897993
2.180036333938899	-0.04278409835848061
2.1810363506058437	-0.042505967800257866
2.1820363672727883	-0.04214044609367926
2.1830363839397324	-0.04170448224028116
2.184036400606677	-0.041215171457875725
2.1850364172736216	-0.04068960164832371
2.186036433940566	-0.04014485339753558
2.1870364506075104	-0.03959799997547069
2.1880364672744546	-0.039066107336137246
2.189036483941399	-0.03856623411759305
2.1900365006083438	-0.03811543164194509
2.191036517275288	-0.03772982956748508
2.1920365339422325	-0.03741510317936919
2.193036550609177	-0.037170265945842496
2.1940365672761213	-0.03699421689121287
2.195036583943066	-0.03688584772383725
2.1960366006100105	-0.03684404283612171
2.1970366172769547	-0.03686767930452156
2.1980366339438993	-0.036955626889541196
2.199036650610844	-0.037106748035734154
2.200036667277788	-0.03731989787170301
2.2010366839447326	-0.03759355028248496
2.2020367006116772	-0.03792187624042369
2.2030367172786214	-0.038296292221016194
2.204036733945566	-0.038708163167390196
2.2050367506125106	-0.039148870835658
2.2060367672794547	-0.03960982414129728
2.2070367839463993	-0.04008242733215758
2.208036800613344	-0.04055807768989506
2.209036817280288	-0.041028169070395776
2.2100368339472327	-0.04148409044237443
2.211036850614177	-0.041917038870917474
2.2120368672811215	-0.04231607163367791
2.213036883948066	-0.042668869424282184
2.2140369006150102	-0.04296308309041827
2.215036917281955	-0.043186356163823256
2.2160369339488994	-0.04332632486028318
2.2170369506158436	-0.04337061807963358
2.218036967282788	-0.04330685740575878
2.219036983949733	-0.043122657106592355
2.220037000616677	-0.04280562413411709
2.2210370172836216	-0.04234587805199987
2.222037033950566	-0.041762795751070766
2.2230370506175103	-0.04109461321539405
2.224037067284455	-0.04037987292459229
2.2250370839513995	-0.03965711004233741
2.2260371006183437	-0.03896485241634974
2.2270371172852883	-0.0383416205783995
2.228037133952233	-0.0378259277443053
2.229037150619177	-0.03745627981393569
2.2300371672861217	-0.03727117537120791
2.2310371839530663	-0.03730441913936096
2.2320372006200104	-0.03753508504201709
2.233037217286955	-0.037906818770146254
2.2340372339538996	-0.038362663141833134
2.235037250620844	-0.03884565365921114
2.2360372672877884	-0.03929881850846352
2.2370372839547326	-0.03966517855982198
2.238037300621677	-0.039887747367567686
2.2390373172886218	-0.03990953117003101
2.240037333955566	-0.03967352888959114
2.2410373506225105	-0.039129017544439315
2.242037367289455	-0.03829906145482394
2.2430373839563993	-0.03725467441155434
2.244037400623344	-0.03606767792099526
2.2450374172902885	-0.03480988617356179
2.2460374339572327	-0.0335531060437178
2.2470374506241773	-0.03236913708997577
2.248037467291122	-0.03132977155489789
2.249037483958066	-0.030506794365095558
2.2500375006250106	-0.02997198313122877
2.2510375172919552	-0.029790927494879736
2.2520375339588994	-0.029956247313524684
2.253037550625844	-0.030412948928839778
2.2540375672927886	-0.031105213606547406
2.2550375839597327	-0.03197721529641948
2.2560376006266774	-0.032973120632276774
2.257037617293622	-0.03403708893198897
2.258037633960566	-0.03511327219747574
2.2590376506275107	-0.03614581511470462
2.2600376672944553	-0.0370788550536938
2.2610376839613995	-0.03785959308760867
2.262037700628344	-0.0384716753705385
2.2630377172952882	-0.03892262039280091
2.264037733962233	-0.03922035390631892
2.2650377506291774	-0.03937279434706517
2.2660377672961216	-0.039387852835061535
2.267037783963066	-0.03927343317437864
2.268037800630011	-0.039037431853136496
2.269037817296955	-0.038687738043504276
2.2700378339638996	-0.03823223360170018
2.271037850630844	-0.037679443055134106
2.2720378672977883	-0.037045641280411844
2.273037883964733	-0.03635219818700546
2.2740379006316775	-0.0356205658927526
2.2750379172986217	-0.03487218919954046
2.2760379339655663	-0.03412850559330517
2.277037950632511	-0.03341094524403213
2.278037967299455	-0.032740931005755924
2.2790379839663997	-0.03213987841655997
2.2800380006333443	-0.03162919569857703
2.2810380173002884	-0.031228293338780088
2.282038033967233	-0.03093268771750796
2.2830380506341776	-0.0307221142042799
2.284038067301122	-0.030576021163755265
2.2850380839680664	-0.030477080259410087
2.2860381006350106	-0.03041195946668875
2.287038117301955	-0.03035724617910639
2.2880381339688998	-0.030289059075582957
2.289038150635844	-0.03018361599395623
2.2900381673027885	-0.03001723393098138
2.291038183969733	-0.029767536042591844
2.2920382006366773	-0.029426809691745708
2.293038217303622	-0.02899709798123987
2.2940382339705665	-0.02848071619991745
2.2950382506375107	-0.027880078795539553
2.2960382673044553	-0.027197699374784078
2.2970382839714	-0.026436190703247427
2.298038300638344	-0.025598264705442297
2.2990383173052886	-0.024686732464799105
2.3000383339722332	-0.023704504223665344
2.3010383506391774	-0.022654523841555942
2.302038367306122	-0.021539039060196403
2.3030383839730666	-0.020359867403470136
2.3040384006400108	-0.019118915897796337
2.3050384173069554	-0.01781817529171219
2.3060384339739	-0.01645970092190386
2.307038450640844	-0.0150456425862307
2.3080384673077887	-0.013578249241469564
2.3090384839747333	-0.012059869003313831
2.3100385006416775	-0.010492949146376246
2.311038517308622	-0.00887995353705875
2.3120385339755662	-0.007222437787938122
2.313038550642511	-0.005521383401653502
2.3140385673094555	-0.003777858722551118
2.3150385839763996	-0.001993031253892643
2.316038600643344	-0.00016816765785732102
2.317038617310289	0.0016953662444587157
2.318038633977233	0.003596105473039372
2.3190386506441776	0.005532485888953931
2.320038667311122	0.007502844194353393
2.3210386839780663	0.009506540738041927
2.322038700645011	0.011556612270801197
2.3230387173119555	0.01367523962347622
2.3240387339788997	0.015884675324921528
2.3250387506458443	0.01820707274507502
2.326038767312789	0.02066448609495416
2.327038783979733	0.02327887042666242
2.3280388006466777	0.026072081633384515
2.3290388173136223	0.029065876449389492
2.3300388339805664	0.03228191245002486
2.331038850647511	0.035738994770612896
2.3320388673144556	0.03942186183975956
2.3330388839814	0.04329226996561808
2.3340389006483444	0.0473114489470817
2.335038917315289	0.05144052942413094
2.336038933982233	0.05564054287782752
2.3370389506491778	0.0598724216303172
2.338038967316122	0.06409699884482381
2.3390389839830665	0.06827500852565833
2.340039000650011	0.0723670855182129
2.3410390173169553	0.07633714824542706
2.3420390339839	0.08019098174044573
2.3430390506508445	0.0839626560156534
2.3440390673177887	0.08768667746222175
2.3450390839847333	0.0913974533124076
2.346039100651678	0.09512929163954359
2.347039117318622	0.0989164013580514
2.3480391339855666	0.10279289222343384
2.3490391506525112	0.10679320875713968
2.3500391673194554	0.11097001798525793
2.3510391839864	0.11535706036031747
2.3520392006533446	0.11994495810016567
2.3530392173202888	0.12470398200387574
2.3540392339872334	0.1296043061489478
2.355039250654178	0.13461640145928935
2.356039267321122	0.13971103570520682
2.3570392839880667	0.14485927350340938
2.3580393006550113	0.15003247631700103
2.3590393173219555	0.15520230245549296
2.3600393339889	0.16034070707479495
2.3610393506558442	0.16542067179109826
2.362039367322789	0.17042462800294494
2.3630393839897335	0.17534154423398823
2.3640394006566776	0.1801608060091844
2.365039417323622	0.18487209569989246
2.366039433990567	0.18946539252386665
2.367039450657511	0.193930972545268
2.3680394673244556	0.19825940867465647
2.3690394839914	0.2024415706689949
2.3700395006583443	0.20646862513164152
2.371039517325289	0.210332256900742
2.3720395339922336	0.2140272405207894
2.3730395506591777	0.21755055909826987
2.3740395673261223	0.220899529768844
2.375039583993067	0.22407176651457866
2.376039600660011	0.22706518016393978
2.3770396173269557	0.22987797839179558
2.3780396339939003	0.2325086657194114
2.3790396506608444	0.23495604351445687
2.380039667327789	0.23721920999100227
2.3810396839947336	0.2392978383414629
2.382039700661678	0.24119542699641855
2.3830397173286224	0.24291819606038828
2.384039733995567	0.24447271012304042
2.385039750662511	0.24586583062044484
2.3860397673294558	0.24710471583507074
2.3870397839964	0.24819682089578984
2.3880398006633445	0.2491498977778747
2.389039817330289	0.2499719953029981
2.3900398339972333	0.25067145913923394
2.391039850664178	0.25125600445655516
2.3920398673311225	0.25172181276704125
2.3930398839980667	0.25205719967683793
2.3940399006650113	0.25225061566007667
2.395039917331956	0.25229080803729115
2.3960399339989	0.25216682097541526
2.3970399506658446	0.2518679954877835
2.3980399673327892	0.2513839694341327
2.3990399839997334	0.250704677520599
2.400040000666678	0.24982035129972055
2.4010400173336226	0.24872176198856952
2.4020400340005668	0.2474030928379371
2.4030400506675114	0.2458609819190632
2.404040067334456	0.24409240739941673
2.4050400840014	0.2420946335248982
2.4060401006683447	0.23986518241639362
2.4070401173352893	0.23740186422752937
2.4080401340022335	0.23470278595833516
2.409040150669178	0.2317663516848773
2.4100401673361227	0.22859126321205034
2.411040184003067	0.22517753646618924
2.4120402006700115	0.22153860611447584
2.4130402173369556	0.2176973298009046
2.4140402340039	0.2136753094584202
2.415040250670845	0.20949143592308062
2.416040267337789	0.20517351815667018
2.4170402840047336	0.20074996789347266
2.418040300671678	0.1962489482815194
2.4190403173386223	0.1916983738825766
2.420040334005567	0.18712591067215376
2.4210403506725116	0.18255756760286906
2.4220403673394557	0.1780008309299375
2.4230403840064003	0.17345017822851394
2.424040400673345	0.16889957764411417
2.425040417340289	0.16434274873599233
2.4260404340072337	0.1597731624771501
2.4270404506741783	0.1551840412543241
2.4280404673411224	0.1505683588679938
2.429040484008067	0.14591884053237755
2.4300405006750116	0.14122796287544157
2.431040517341956	0.13648875058892945
2.4320405340089004	0.1317043747093374
2.433040550675845	0.1268850449775503
2.434040567342789	0.12204087298539695
2.4350405840097338	0.11718172173845422
2.436040600676678	0.11231720565603304
2.4370406173436225	0.10745669057118772
2.438040634010567	0.10260929373071145
2.4390406506775113	0.09778388379514531
2.440040667344456	0.0929890808387642
2.4410406840114005	0.08823333117828766
2.4420407006783447	0.08352581447772986
2.4430407173452893	0.0788761529339043
2.444040734012234	0.0742937345647798
2.445040750679178	0.06978769880206842
2.4460407673461226	0.06536693649122126
2.4470407840130672	0.06104008989143644
2.4480408006800114	0.05681555267564714
2.449040817346956	0.052701469930529606
2.4500408340139006	0.04870573815649941
2.4510408506808448	0.04483550865098614
2.4520408673477894	0.0410911302231579
2.453040884014734	0.03746807186534412
2.454040900681678	0.03396145649471918
2.4550409173486227	0.030566158442202666
2.4560409340155673	0.027276803452450697
2.4570409506825115	0.024087768683861963
2.458040967349456	0.020993182708574924
2.4590409840164007	0.017986925512473363
2.460041000683345	0.015062628495177657
2.4610410173502895	0.012214415059729795
2.4620410340172336	0.009445989395724483
2.4630410506841782	0.006767780551620957
2.464041067351123	0.004190117211678668
2.465041084018067	0.0017230794738994342
2.4660411006850116	-0.0006235011499751541
2.467041117351956	-0.002840041734459017
2.4680411340189004	-0.004917207940328408
2.469041150685845	-0.00684591401461729
2.4700411673527896	-0.008617322790619428
2.4710411840197337	-0.010224261013626038
2.4720412006866783	-0.011678696061783915
2.473041217353623	-0.013006300183160579
2.474041234020567	-0.01423328299987997
2.4750412506875117	-0.015386102720322526
2.4760412673544563	-0.016491466139129652
2.4770412840214004	-0.017573165804868743
2.478041300688345	-0.018639555363846535
2.4790413173552897	-0.019721948131989984
2.480041334022234	-0.02085645359686733
2.4810413506891784	-0.022077865901460266
2.482041367356123	-0.023400633747458013
2.483041384023067	-0.024824718322615118
2.484041400690012	-0.02634997850859441
2.4850414173569564	-0.02797648948671713
2.4860414340239005	-0.02970454273796503
2.487041450690845	-0.03153464604297701
2.4880414673577893	-0.03346752348205306
2.489041484024734	-0.03550411543515262
2.4900415006916785	-0.03764557858189447
2.4910415173586227	-0.03989296062999125
2.4920415340255673	-0.04224313388934621
2.493041550692512	-0.04469003395522617
2.494041567359456	-0.04722774374602933
2.4950415840264006	-0.049850562479810095
2.4960416006933452	-0.052553005674284885
2.4970416173602894	-0.055329805146829135
2.498041634027234	-0.05817590901447856
2.4990416506941786	-0.061086481693924465
2.5000416673611228	-0.0640569039015213
2.5010416840280674	-0.06708581618290443
2.502041700695012	-0.07021340422041356
2.503041717361956	-0.07350985993234635
2.5040417340289007	-0.07704624946526617
2.5050417506958453	-0.08089385131594086
2.5060417673627895	-0.08512413672205102
2.507041784029734	-0.08980878452213492
2.5080418006966787	-0.09501968984054723
2.509041817363623	-0.10083690295692226
2.5100418340305675	-0.10729779635841258
2.5110418506975116	-0.11437553079519722
2.5120418673644562	-0.12198513238577509
2.513041884031401	-0.12999967350265496
2.514041900698345	-0.13828888480451262
2.5150419173652896	-0.14672003575853898
2.516041934032234	-0.1551579346404611
2.5170419506991784	-0.16346492853452724
2.518041967366123	-0.17150090333351511
2.5190419840330676	-0.17912328373871728
2.5200420007000117	-0.18618703325996183
2.5210420173669563	-0.19254744982763658
2.522042034033901	-0.19809577151747496
2.523042050700845	-0.20274867538242078
2.5240420673677897	-0.20642100524152784
2.5250420840347343	-0.20902514372237277
2.5260421007016785	-0.21047101226105827
2.527042117368623	-0.21066607110221025
2.5280421340355677	-0.20951531929898243
2.529042150702512	-0.20692129471305312
2.5300421673694564	-0.2027840740146238
2.531042184036401	-0.19699985223644906
2.532042200703345	-0.1894427387158256
2.53304221737029	-0.17997006695899148
2.5340422340372344	-0.16843638405511727
2.5350422507041785	-0.1546937759019147
2.536042267371123	-0.13859186720560593
2.5370422840380673	-0.11999891816165033
2.538042300705012	-0.09893834720215393
2.5390423173719565	-0.07533997432514455
2.5400423340389007	-0.049127590922787234
2.5410423507058453	-0.020253841930173523
2.54204236737279	0.011286197361838446
2.543042384039734	0.045458937325438195
2.5440424007066786	0.08220274189969091
2.5450424173736232	0.1214281742894311
2.5460424340405674	0.163017996965294
2.547042450707512	0.2068271716636416
2.5480424673744566	0.2526828593866722
2.5490424840414008	0.3003844204023489
2.5500425007083454	0.34970341424443935
2.55104251737529	0.40038480997931625
2.552042534042234	0.4521626912354396
2.5530425507091787	0.5047557775236545
2.5540425673761233	0.5578552755037898
2.5550425840430675	0.6111245911013855
2.556042600710012	0.6641993295078341
2.5570426173769567	0.7166872951802883
2.558042634043901	0.7681684918417033
2.5590426507108455	0.8181951224807498
2.5600426673777896	0.8662915893519486
2.5610426840447342	0.911953497613493
2.562042700711679	0.9546346449939719
2.563042717378623	0.9937506895004775
2.5640427340455676	1.0286892468479085
2.565042750712512	1.0588107171902992
2.5660427673794564	1.0836759022407723
2.567042784046401	1.103158261903739
2.5680428007133456	1.117142339248002
2.5690428173802897	1.1255513490837445
2.5700428340472343	1.1283471779624927
2.571042850714179	1.1255304786255953
2.572042867381123	1.1171419110398084
2.5730428840480677	1.1032617966055436
2.5740429007150123	1.0840091518021462
2.5750429173819565	1.059541664850303
2.576042934048901	1.0300556957120865
2.5770429507158457	0.9957862760908908
2.57804296738279	0.9570071094314724
2.5790429840497344	0.9140305709199209
2.580043000716679	0.8672077074837364
2.581043017383623	0.8169289177141174
2.582043034050568	0.7636329421037886
2.5830430507175124	0.7078043876055861
2.5840430673844565	0.6499667041379606
2.585043084051401	0.5906820133606405
2.5860431007183453	0.5305511086747313
2.58704311738529	0.4702134552226642
2.5880431340522345	0.4103471898883043
2.5890431507191787	0.35166912129678857
2.5900431673861233	0.2948814120890222
2.591043184053068	0.23988505662833118
2.592043200720012	0.18671822942195906
2.5930432173869566	0.13558408626636326
2.5940432340539012	0.08666679969922383
2.5950432507208454	0.0401316179408305
2.59604326738779	-0.0038751351058342338
2.5970432840547346	-0.0452260598552194
2.5980433007216788	-0.08381268103912273
2.5990433173886234	-0.1195454477067265
2.600043334055568	-0.1523537332245346
2.601043350722512	-0.1821866942952271
2.6020433673894567	-0.20902477295125071
2.6030433840564013	-0.23287660533585786
2.6040434007233455	-0.2537699765889017
2.60504341739029	-0.2717515946462634
2.6060434340572347	-0.2868870762100087
2.607043450724179	-0.29926095319523277
2.6080434673911235	-0.30897668171939513
2.609043484058068	-0.3161566421927333
2.6100435007250122	-0.32094213800936827
2.611043517391957	-0.32349236827013583
2.612043534058901	-0.3239705965803132
2.6130435507258456	-0.3225478231367
2.61404356739279	-0.31941369881253123
2.6150435840597344	-0.3147365462909098
2.616043600726679	-0.30855260674179946
2.6170436173936236	-0.3010399667149597
2.6180436340605677	-0.29238695107762896
2.6190436507275123	-0.28277151587195626
2.620043667394457	-0.27236124831501873
2.621043684061401	-0.261313775916871
2.6220437007283457	-0.24978231396593262
2.6230437173952903	-0.23791421137272914
2.6240437340622345	-0.22584655934931835
2.625043750729179	-0.21370608028265745
2.6260437673961237	-0.20160912773462386
2.627043784063068	-0.18966168644200462
2.6280438007300124	-0.17795937231651773
2.629043817396957	-0.1665874324447804
2.630043834063901	-0.15562074508833013
2.631043850730846	-0.14512393726071954
2.6320438673977904	-0.1351529891390188
2.6330438840647346	-0.1257548188371007
2.634043900731679	-0.11696600818843843
2.6350439173986233	-0.1088127702014169
2.636043934065568	-0.10131094905934677
2.6370439507325125	-0.09446602012044265
2.6380439673994567	-0.0882730899178379
2.6390439840664013	-0.08271689615957857
2.640044000733346	-0.07777180772863326
2.64104401740029	-0.07340129548599363
2.6420440340672346	-0.0695506651814285
2.6430440507341793	-0.06614891396785375
2.6440440674011234	-0.06311452091030473
2.645044084068068	-0.060359018477129975
2.6460441007350126	-0.05787229819479573
2.6470441174019568	-0.05564297227183672
2.6480441340689014	-0.053637617212577676
2.649044150735846	-0.05182370480737818
2.65004416740279	-0.050169602132636784
2.6510441840697347	-0.04864535338945801
2.6520442007366793	-0.047233484668867794
2.6530442174036235	-0.04592627979149399
2.654044234070568	-0.044717142571649694
2.6550442507375127	-0.04360037210968561
2.656044267404457	-0.04257116279199189
2.6570442840714015	-0.04162560429099516
2.658044300738346	-0.040760681565160516
2.6590443174052902	-0.0399742748589906
2.660044334072235	-0.03926515970302718
2.661044350739179	-0.03863204738986282
2.6620443674061236	-0.03806024012118792
2.663044384073068	-0.03752495086295124
2.6640444007400124	-0.03700200686316324
2.665044417406957	-0.036468130655871886
2.6660444340739016	-0.03590094006116283
2.6670444507408457	-0.03527894818515951
2.6680444674077903	-0.0345815634200246
2.669044484074735	-0.03378908944395752
2.670044500741679	-0.032882725221196
2.6710445174086237	-0.0318459630810476
2.6720445340755683	-0.030684157071475867
2.6730445507425125	-0.02941972061398834
2.674044567409457	-0.02807637960622247
2.6750445840764017	-0.026678755231853694
2.676044600743346	-0.025252363960595953
2.6770446174102904	-0.023823617548200626
2.678044634077235	-0.02241982303645727
2.679044650744179	-0.021069182753192806
2.680044667411124	-0.019800794312273745
2.6810446840780684	-0.018642274504387712
2.6820447007450126	-0.017575661405410913
2.683044717411957	-0.016543574748461416
2.6840447340789018	-0.01550170793960235
2.685044750745846	-0.014406036096941514
2.6860447674127905	-0.013212570778914481
2.6870447840797347	-0.011877359984282156
2.6880448007466793	-0.010356488152134288
2.689044817413624	-0.00860607616188517
2.690044834080568	-0.0065822813332765025
2.6910448507475127	-0.00424546878259199
2.6920448674144573	-0.0016193463056963153
2.6930448840814014	0.0012231491517316131
2.694044900748346	0.004207751971253313
2.6950449174152906	0.00726016009410285
2.696044934082235	0.010306035021188037
2.6970449507491794	0.013271001813089383
2.698044967416124	0.01608064909006126
2.699044984083068	0.0186605290320315
2.7000450007500127	0.020936157378601987
2.7010450174169574	0.02283861182402089
2.7020450340839015	0.024384406742062104
2.703045050750846	0.025656700272550542
2.7040450674177907	0.026740381140061005
2.705045084084735	0.027720298743850125
2.7060451007516795	0.028681210074792463
2.707045117418624	0.029707784941545454
2.7080451340855682	0.030884654875833063
2.709045150752513	0.03229641496905254
2.710045167419457	0.03402762387227634
2.7110451840864016	0.03615775237602127
2.712045200753346	0.03868864906042883
2.7130452174202904	0.04156135985025747
2.714045234087235	0.04471526980778035
2.7150452507541796	0.048089727554942896
2.7160452674211237	0.05162404527336514
2.7170452840880683	0.0552574987043364
2.718045300755013	0.05892932714882348
2.719045317421957	0.06257873346746547
2.7200453340889017	0.06614488408057613
2.7210453507558463	0.06957010763063969
2.7220453674227905	0.07284612116983682
2.723045384089735	0.07600346844158729
2.7240454007566797	0.07907370472331021
2.725045417423624	0.08208834885209379
2.7260454340905684	0.08507888322470443
2.727045450757513	0.08807675379757982
2.728045467424457	0.09111337008683362
2.729045484091402	0.09422010516824653
2.7300455007583464	0.0974407336433043
2.7310455174252906	0.10081657607236992
2.732045534092235	0.10436014843979542
2.7330455507591798	0.108072261649318
2.734045567426124	0.11195343332566511
2.7350455840930685	0.11600420686142798
2.7360456007600127	0.1202251514170666
2.7370456174269573	0.1246168619209016
2.738045634093902	0.1291799590691251
2.739045650760846	0.13391508932579405
2.7400456674277907	0.13882292492283366
2.7410456840947353	0.1439029805893173
2.7420457007616794	0.14913629155421682
2.743045717428624	0.15448925282900963
2.7440457340955686	0.15992788281671633
2.745045750762513	0.16541822568821793
2.7460457674294574	0.17092635138226867
2.747045784096402	0.1764183556054857
2.748045800763346	0.18186035983235538
2.7490458174302908	0.18721851130522352
2.7500458340972354	0.19245898303430883
2.7510458507641795	0.197549933928115
2.752045867431124	0.2024903892241136
2.7530458840980687	0.2073039384985757
2.754045900765013	0.2120148761474058
2.7550459174319575	0.2166475223343724
2.756045934098902	0.22122622299111236
2.7570459507658462	0.22577534981712247
2.758045967432791	0.23031930027977215
2.7590459840997354	0.23488249761429494
2.7600460007666796	0.239489390823793
2.761046017433624	0.24416297260698802
2.7620460341005684	0.24890280085361044
2.763046050767513	0.25368971892615166
2.7640460674344576	0.2585040728990053
2.7650460841014017	0.26332623461442595
2.7660461007683463	0.2681366016825398
2.767046117435291	0.2729155974813378
2.768046134102235	0.2776436711566794
2.7690461507691797	0.2823012976222837
2.7700461674361243	0.28686897755974256
2.7710461841030685	0.2913281021550223
2.772046200770013	0.29567386017555347
2.7730462174369577	0.2999125104831771
2.774046234103902	0.3040506486034349
2.7750462507708464	0.3080948958297339
2.776046267437791	0.3120518992233483
2.777046284104735	0.315928331613414
2.77804630077168	0.31973089159693774
2.7790463174386244	0.3234663035387916
2.7800463341055686	0.32714131757171494
2.781046350772513	0.330762140976102
2.7820463674394578	0.3343258956394176
2.783046384106402	0.3378223936817608
2.7840464007733465	0.3412412647352007
2.7850464174402907	0.3445721641996689
2.7860464341072353	0.3478047732429671
2.78704645077418	0.3509287988007625
2.788046467441124	0.35393397357658957
2.7890464841080687	0.35681005604184457
2.7900465007750133	0.3595468304357949
2.7910465174419574	0.3621347351155307
2.792046534108902	0.3645743640601932
2.7930465507758466	0.3668745248863782
2.794046567442791	0.36904428540807166
2.7950465841097354	0.37109273920712543
2.79604660077668	0.373029005633258
2.797046617443624	0.37486222980405126
2.7980466341105688	0.376601582604957
2.7990466507775134	0.37825626068929086
2.8000466674444575	0.37983548647823734
2.801046684111402	0.38134864836563
2.8020467007783467	0.38280743467185824
2.803046717445291	0.38422540491594664
2.8040467341122355	0.3856161976693214
2.80504675077918	0.3869934786756602
2.8060467674461242	0.38837100416661313
2.807046784113069	0.38976264659208376
2.8080468007800135	0.3911823109017167
2.8090468174469576	0.3926439278130203
2.810046834113902	0.3941614536371297
2.8110468507808464	0.39574610962491946
2.812046867447791	0.39736411611945727
2.8130468841147356	0.3989450379440916
2.8140469007816797	0.40041739762896134
2.8150469174486243	0.40170974347207355
2.816046934115569	0.40275064953929945
2.817046950782513	0.40346871566437686
2.8180469674494577	0.4037925674489103
2.8190469841164023	0.40365085626237074
2.8200470007833465	0.4029722592420951
2.821047017450291	0.4016911200615482
2.8220470341172357	0.39983443299132887
2.82304705078418	0.39750497491847153
2.8240470674511244	0.39480777287445595
2.825047084118069	0.3918478796586272
2.826047100785013	0.38872907390389067
2.827047117451958	0.38554614803059306
2.8280471341189024	0.3824062508487048
2.8290471507858466	0.37941974502891074
2.830047167452791	0.3766969540046043
2.8310471841197358	0.37434181377469244
2.83204720078668	0.37235333581335606
2.8330472174536245	0.37064436972735654
2.834047234120569	0.3691251759759883
2.8350472507875133	0.3677059757812464
2.836047267454458	0.36629695112783156
2.837047284121402	0.36480824476314994
2.8380473007883467	0.3631499601973147
2.8390473174552913	0.36123216170314
2.8400473341222354	0.35896487431614654
2.84104735078918	0.35626293629447736
2.8420473674561246	0.35312181580083946
2.843047384123069	0.34960344120987835
2.8440474007900134	0.3457716869922928
2.845047417456958	0.3416903883814847
2.846047434123902	0.3374233413735658
2.8470474507908468	0.33303430272734774
2.8480474674577914	0.32858698996434826
2.8490474841247355	0.32414508136878845
2.85004750079168	0.31977221598759986
2.8510475174586247	0.315528658671558
2.852047534125569	0.31141884923819907
2.8530475507925135	0.3074010201871904
2.854047567459458	0.30343197498280167
2.8550475841264022	0.29946847785200187
2.856047600793347	0.2954672537844667
2.8570476174602915	0.2913849885325742
2.8580476341272356	0.2871783286114146
2.85904765079418	0.2828038812987755
2.8600476674611244	0.2782182146351519
2.861047684128069	0.27338042446809596
2.8620477007950136	0.2682927750535035
2.8630477174619577	0.26299339071509303
2.8640477341289023	0.2575214461648262
2.865047750795847	0.25191607687736783
2.866047767462791	0.24621637909009425
2.8670477841297357	0.24046140980307976
2.8680478007966803	0.23469018677910627
2.8690478174636245	0.22894168854365665
2.870047834130569	0.22325485438492693
2.8710478507975137	0.21766694084678218
2.872047867464458	0.21218732971710572
2.8730478841314024	0.2068021451779474
2.874047900798347	0.2014967616297062
2.875047917465291	0.19625651423547902
2.876047934132236	0.19106669892107012
2.8770479507991804	0.18591257237498618
2.8780479674661246	0.18077935204844517
2.879047984133069	0.17565221615536367
2.8800480008000138	0.17051630367236495
2.881048017466958	0.16535732804502368
2.8820480341339025	0.160171422605657
2.883048050800847	0.15496344004198273
2.8840480674677913	0.14973846404411642
2.885048084134736	0.14450153906487673
2.88604810080168	0.13925767031979286
2.8870481174686247	0.13401182378709325
2.8880481341355693	0.12876892620771285
2.8890481508025134	0.12353386508528963
2.890048167469458	0.11831148868617235
2.8910481841364026	0.11310709531861743
2.892048200803347	0.10793433488668606
2.8930482174702914	0.1028138723004799
2.894048234137236	0.0977665526687199
2.89504825080418	0.09281318186282468
2.8960482674711248	0.0879745265169203
2.8970482841380694	0.08327131402783543
2.8980483008050135	0.07872423255510966
2.899048317471958	0.07435393102098145
2.9000483341389027	0.07018101911039595
2.901048350805847	0.06622392622729444
2.9020483674727915	0.062464094278412166
2.903048384139736	0.05885174095908955
2.9040484008066803	0.05533606674202509
2.905048417473625	0.05186623265853319
2.9060484341405695	0.04839132086450767
2.9070484508075136	0.044860287559419246
2.908048467474458	0.0412220382336178
2.909048484141403	0.03742543914015647
2.910048500808347	0.03341931729479866
2.9110485174752916	0.02915620859859206
2.9120485341422357	0.024653698926647816
2.9130485508091803	0.019984487538801228
2.914048567476125	0.015222978151226675
2.915048584143069	0.010443535242798532
2.9160486008100137	0.005720484055097718
2.9170486174769583	0.0011281105924087244
2.9180486341439025	-0.003259338378275879
2.919048650810847	-0.007367655327262149
2.9200486674777917	-0.011122671962149826
2.921048684144736	-0.014454243458419277
2.9220487008116804	-0.01736189049892209
2.923048717478625	-0.019904402189572797
2.924048734145569	-0.022142494622759183
2.925048750812514	-0.02413692312816527
2.9260487674794584	-0.025948482272766228
2.9270487841464026	-0.027637973916306076
2.928048800813347	-0.029265140483698167
2.9290488174802918	-0.03089136245138249
2.930048834147236	-0.03257897114122728
2.9310488508141805	-0.03438756236507405
2.932048867481125	-0.036328794261299056
2.9330488841480693	-0.03837338376653387
2.934048900815014	-0.040490722533643685
2.935048917481958	-0.04265019201409834
2.9360489341489027	-0.04482116345796785
2.9370489508158473	-0.04697299791392398
2.9380489674827914	-0.0490750462292371
2.939048984149736	-0.05109664904978129
2.9400490008166806	-0.05300713682003115
2.941049017483625	-0.05477766560302693
2.9420490341505694	-0.05641187097195505
2.943049050817514	-0.05794123429062091
2.944049067484458	-0.05939812891337994
2.9450490841514028	-0.060814917993188805
2.9460491008183474	-0.062223954481606225
2.9470491174852915	-0.06365758112878968
2.948049134152236	-0.06514813048350011
2.9490491508191807	-0.06672792489309867
2.950049167486125	-0.06842927650354852
2.9510491841530695	-0.07028199149626078
2.952049200820014	-0.07227141573615413
2.9530492174869583	-0.07434462441318285
2.954049234153903	-0.07644743341322813
2.9550492508208475	-0.07852564842077166
2.9560492674877916	-0.08052506491889702
2.9570492841547362	-0.08239146818928841
2.958049300821681	-0.08407063331223191
2.959049317488625	-0.08550832516661323
2.9600493341555696	-0.08665029842992061
2.9610493508225137	-0.08744569336533746
2.9620493674894584	-0.08790450545079458
2.963049384156403	-0.08808931593309809
2.964049400823347	-0.08806442669238382
2.9650494174902917	-0.08789412940738871
2.9660494341572363	-0.08764270555544962
2.9670494508241805	-0.08737442641250483
2.968049467491125	-0.08715355305309476
2.9690494841580697	-0.08704433635036037
2.970049500825014	-0.08711101697604429
2.9710495174919584	-0.0874148426562528
2.972049534158903	-0.08796324702362242
2.973049550825847	-0.08871697685220672
2.974049567492792	-0.08963522044659276
2.9750495841597364	-0.0906771559099681
2.9760496008266806	-0.09180195114412192
2.977049617493625	-0.09296876384944522
2.97804963416057	-0.0941367415249294
2.979049650827514	-0.09526502146816689
2.9800496674944585	-0.09631273077535149
2.981049684161403	-0.09724032516108526
