Time	Amplitude
0.0	0.04484977424128981
0.0010000166669444492	0.0781218615467853
0.0020000333338888983	0.07538845026237988
0.0030000500008333475	0.02723125207367414
0.004000066667777797	0.06022123327913215
0.005000083334722245	0.06758562013615624
0.006000100001666695	0.04880056924519352
0.0070001166686111446	0.06297001164974364
0.008000133335555593	0.07847208121735134
0.009000150002500042	0.12774863471722825
0.01000016666944449	0.03900557964700138
0.011000183336388941	0.1012165205780174
0.01200020000333339	0.079540937379626
0.013000216670277839	0.06135257299050851
0.014000233337222289	0.1158366908871721
0.015000250004166738	0.12219323919684211
0.016000266671111187	0.05798477543416879
0.017000283338055637	0.049279212448497055
0.018000300005000084	0.07152825308174235
0.019000316671944534	0.09817542800386704
0.02000033333888898	0.05878920048724458
0.021000350005833432	0.1019966850690658
0.022000366672777882	0.05750999296881791
0.02300038333972233	0.06041056842442325
0.02400040000666678	0.0662691521452694
0.02500041667361123	0.027164484982979534
0.026000433340555677	0.02051687943058803
0.027000450007500128	0.09666612115719685
0.028000466674444578	0.07637275892176495
0.029000483341389025	0.08136273733832494
0.030000500008333476	0.12253025491430102
0.031000516675277923	0.07465027853649898
0.03200053334222237	0.06337473390455789
0.033000550009166824	0.08273271924517467
0.034000566676111274	0.04412565803475873
0.03500058334305572	0.03296315334496347
0.03600060001000017	0.05092117959749588
0.03700061667694462	0.06733178125356482
0.03800063334388907	0.06078057137326274
0.03900065001083352	0.07166719983206513
0.04000066667777796	0.04674845837268036
0.04100068334472241	0.1213520428633421
0.042000700011666864	0.036889211563162744
0.043000716678611314	0.1041428005495453
0.044000733345555765	0.07120566630337112
0.045000750012500215	0.03803957243902368
0.04600076667944466	0.033108471496602364
0.04700078334638911	0.05438397645090373
0.04800080001333356	0.11529297776681986
0.04900081668027801	0.1280286554154287
0.05000083334722246	0.09654673964535587
0.051000850014166904	0.09090526119090252
0.052000866681111355	0.05712091670812991
0.053000883348055805	0.09257387942914441
0.054000900015000255	0.08087197089363671
0.055000916681944706	0.06641062677464103
0.056000933348889156	0.09644323306124165
0.0570009500158336	0.10533413439058013
0.05800096668277805	0.10620906641961515
0.0590009833497225	0.08744296931778106
0.06000100001666695	0.04993654727315985
0.0610010166836114	0.08351715153122113
0.062001033350555845	0.0988989434241621
0.0630010500175003	0.042825125116888414
0.06400106668444475	0.05407742296921742
0.0650010833513892	0.09673239572556948
0.06600110001833365	0.1127421766825357
0.0670011166852781	0.08133914144485026
0.06800113335222255	0.09315340331150283
0.069001150019167	0.06015295409379168
0.07000116668611144	0.08373814867265354
0.07100118335305589	0.029709974865382183
0.07200120002000034	0.05781036266300906
0.07300121668694479	0.13183176897188165
0.07400123335388924	0.11700259500342797
0.07500125002083369	0.06773724123270834
0.07600126668777814	0.06493448557089095
0.07700128335472259	0.016351230587791754
0.07800130002166704	0.09317640371214625
0.07900131668861149	0.1071776237391189
0.08000133335555593	0.09800229984834903
0.08100135002250038	0.14234115690475144
0.08200136668944483	0.07776844461910995
0.08300138335638928	0.037527151827693964
0.08400140002333373	0.1038985039898645
0.08500141669027818	0.1097587009315197
0.08600143335722263	0.044127590088088545
0.08700145002416708	0.035863002055005345
0.08800146669111153	0.08797096143184327
0.08900148335805598	0.04167205329642841
0.09000150002500043	0.04555159003915571
0.09100151669194487	0.032133430182300506
0.09200153335888932	0.05057049175750904
0.09300155002583377	0.12515283330234106
0.09400156669277822	0.09045189812998923
0.09500158335972267	0.08888675688672386
0.09600160002666712	0.07209465912536311
0.09700161669361157	0.01358205476852021
0.09800163336055602	0.04347538384184241
0.09900165002750047	0.0959349828419061
0.10000166669444492	0.04878788809114383
0.10100168336138937	0.059914176772104005
0.10200170002833381	0.09760334336824127
0.10300171669527826	0.03503105222378467
0.10400173336222271	0.05422888795090548
0.10500175002916716	0.12832793374326426
0.10600176669611161	0.10578354163142302
0.10700178336305606	0.07149230337529949
0.10800180003000051	0.08710248294093217
0.10900181669694496	0.07926688089317302
0.11000183336388941	0.055613713542517776
0.11100185003083386	0.1187269980764161
0.11200186669777831	0.03179058481510662
0.11300188336472275	0.0770333475894795
0.1140019000316672	0.060667688969547835
0.11500191669861165	0.06126738591111506
0.1160019333655561	0.13968746258939518
0.11700195003250055	0.06301885029999377
0.118001966699445	0.12480548129934205
0.11900198336638945	0.025460700788602592
0.1200020000333339	0.0948919327471605
0.12100201670027835	0.08909581552440286
0.1220020333672228	0.03287008543946687
0.12300205003416724	0.01733036610393554
0.12400206670111169	0.06458424950656592
0.12500208336805615	0.05052689787927175
0.1260021000350006	0.06457147256595772
0.12700211670194506	0.11381199114961424
0.1280021333688895	0.06946834993752907
0.12900215003583393	0.07906197130700263
0.1300021667027784	0.07703216049757035
0.13100218336972283	0.04597192120560678
0.1320022000366673	0.07985845831919924
0.13300221670361173	0.05537852121293349
0.1340022333705562	0.08645932787087578
0.13500225003750063	0.05067738062421791
0.1360022667044451	0.09822795044741406
0.13700228337138953	0.10126687847013432
0.138002300038334	0.04530924352540017
0.13900231670527843	0.07000052162296051
0.14000233337222287	0.1324062098299094
0.14100235003916733	0.14232702460570737
0.14200236670611177	0.11648923365599632
0.14300238337305624	0.029824145904732202
0.14400240004000067	0.06323874112039488
0.14500241670694514	0.0709509597576196
0.14600243337388957	0.03951553406263392
0.14700245004083404	0.08234246597089846
0.14800246670777847	0.05181719904868599
0.14900248337472294	0.14417809553814584
0.15000250004166737	0.06980460372624889
0.1510025167086118	0.034679800734463216
0.15200253337555628	0.016887129136855028
0.1530025500425007	0.019353128304893216
0.15400256670944518	0.05314076026810685
0.1550025833763896	0.09776319125193235
0.15600260004333408	0.07323626511590271
0.15700261671027851	0.05711231284409511
0.15800263337722298	0.12893421036676356
0.15900265004416742	0.13478246399778795
0.16000266671111185	0.041257346482403895
0.16100268337805632	0.018001856205223064
0.16200270004500075	0.04039380724575933
0.16300271671194522	0.053544082135311144
0.16400273337888965	0.11715092684014945
0.16500275004583412	0.06853350771793472
0.16600276671277855	0.07112653897943479
0.16700278337972302	0.04910723796070553
0.16800280004666746	0.10309955993320993
0.16900281671361192	0.06767903744566327
0.17000283338055636	0.05758000186665171
0.1710028500475008	0.08388979134849368
0.17200286671444526	0.057501370565401215
0.1730028833813897	0.06473705121021958
0.17400290004833416	0.06038100251324238
0.1750029167152786	0.07571981507185263
0.17600293338222306	0.058851214206635374
0.1770029500491675	0.06715766353769162
0.17800296671611196	0.10663133031699527
0.1790029833830564	0.04049001080153978
0.18000300005000086	0.03465103561205325
0.1810030167169453	0.08278741400744397
0.18200303338388973	0.05320604587081995
0.1830030500508342	0.07334696906935897
0.18400306671777863	0.035753376699781306
0.1850030833847231	0.043827552850327654
0.18600310005166754	0.04851462092534316
0.187003116718612	0.09274403215764025
0.18800313338555644	0.042884613855674256
0.1890031500525009	0.1192154234406818
0.19000316671944534	0.08260105382845012
0.1910031833863898	0.08948195295717212
0.19200320005333424	0.0169573490207283
0.19300321672027868	0.10695328793045128
0.19400323338722314	0.08112882576043293
0.19500325005416758	0.07395888288731343
0.19600326672111204	0.06959004727490978
0.19700328338805648	0.1192863451996341
0.19800330005500094	0.07186144408297312
0.19900331672194538	0.13387856198874565
0.20000333338888984	0.10265613066409068
0.20100335005583428	0.1218526118345744
0.20200336672277874	0.1055899011781647
0.20300338338972318	0.1086738659057303
0.20400340005666762	0.07687993109166022
0.20500341672361208	0.1358552871794442
0.20600343339055652	0.05185804794980274
0.20700345005750098	0.07853642974782808
0.20800346672444542	0.09469886288532137
0.20900348339138988	0.11908652174343347
0.21000350005833432	0.05114880448548684
0.21100351672527878	0.06946657303391718
0.21200353339222322	0.09985021243912609
0.21300355005916768	0.0625597098238379
0.21400356672611212	0.05649980132990879
0.21500358339305656	0.05350561975666001
0.21600360006000102	0.03598576919096163
0.21700361672694546	0.041484375449178774
0.21800363339388992	0.07909487431253151
0.21900365006083436	0.0588997664330321
0.22000366672777882	0.09808155537939967
0.22100368339472326	0.07321568018537168
0.22200370006166772	0.111517379139925
0.22300371672861216	0.06021551808862986
0.22400373339555663	0.060943861354211495
0.22500375006250106	0.07964183177974023
0.2260037667294455	0.050898975142688305
0.22700378339638996	0.03233925539156437
0.2280038000633344	0.039544993564481074
0.22900381673027886	0.11027835419615448
0.2300038333972233	0.07833129861552464
0.23100385006416777	0.10052777906513088
0.2320038667311122	0.04564830404517352
0.23300388339805667	0.09505163870325824
0.2340039000650011	0.0947105527289884
0.23500391673194554	0.08847154330726376
0.23600393339889	0.10206680455545039
0.23700395006583444	0.06318248130008945
0.2380039667327789	0.04658106388218177
0.23900398339972334	0.10997786734080031
0.2400040000666678	0.07291237038073681
0.24100401673361224	0.058846619783374424
0.2420040334005567	0.09984327975885035
0.24300405006750114	0.0935935643303657
0.2440040667344456	0.10127842833261244
0.24500408340139004	0.12441110161262553
0.24600410006833448	0.13758950341344078
0.24700411673527894	0.12430702409122665
0.24800413340222338	0.09591085526296485
0.24900415006916785	0.04508797271976321
0.2500041667361123	0.10664875210962842
0.25100418340305675	0.07283409257105841
0.2520042000700012	0.12754821322006274
0.2530042167369456	0.05878204233362086
0.2540042334038901	0.03440058888090524
0.25500425007083455	0.03689224788894414
0.256004266737779	0.07730888858562264
0.2570042834047234	0.1036456909214217
0.25800430007166786	0.04355927942394461
0.25900431673861235	0.10478457307534866
0.2600043334055568	0.10375101628649945
0.2610043500725012	0.024893832940483526
0.26200436673944566	0.07204928572080811
0.26300438340639015	0.11297526309251986
0.2640044000733346	0.07056880217068712
0.265004416740279	0.02464335633164097
0.26600443340722346	0.03465785250283268
0.2670044500741679	0.08909618487868837
0.2680044667411124	0.12889999350072284
0.2690044834080568	0.1337279681098141
0.27000450007500126	0.01689546902921656
0.2710045167419457	0.09777728902786144
0.2720045334088902	0.06904794538723766
0.27300455007583463	0.0739729509237351
0.27400456674277907	0.06155539255436891
0.2750045834097235	0.0754852971409552
0.276004600076668	0.06586821261134522
0.27700461674361243	0.04659544243576276
0.27800463341055687	0.11017849388777098
0.2790046500775013	0.07301881596723436
0.28000466674444574	0.09170347999973384
0.28100468341139023	0.07311434745437556
0.28200470007833467	0.09465315040519441
0.2830047167452791	0.11077177679001547
0.28400473341222354	0.09230874708124569
0.28500475007916803	0.09092464474127117
0.28600476674611247	0.13912293424158728
0.2870047834130569	0.06638997055931173
0.28800480008000134	0.05157425834476474
0.2890048167469458	0.08814718440359995
0.2900048334138903	0.03291320819248939
0.2910048500808347	0.08660037893525194
0.29200486674777915	0.12487369233797656
0.2930048834147236	0.05715114997515808
0.2940049000816681	0.08469377181447083
0.2950049167486125	0.10160561411948205
0.29600493341555695	0.12719981671202185
0.2970049500825014	0.10491955389113475
0.2980049667494459	0.10015733183523218
0.2990049834163903	0.07103413992750157
0.30000500008333475	0.04863997832106531
0.3010050167502792	0.08491416610062034
0.3020050334172236	0.08726008052853028
0.3030050500841681	0.09133991814189689
0.30400506675111255	0.04593532200045183
0.305005083418057	0.05429651071267746
0.3060051000850014	0.04679543554543593
0.3070051167519459	0.06280447769368697
0.30800513341889035	0.08571065090164114
0.3090051500858348	0.0840976460288899
0.3100051667527792	0.10561098144310435
0.31100518341972366	0.03156661628716338
0.31200520008666816	0.07276022390537529
0.3130052167536126	0.07955879140215105
0.31400523342055703	0.07802165852139265
0.31500525008750146	0.11003327116374173
0.31600526675444596	0.1043460795704262
0.3170052834213904	0.11585639597466271
0.31800530008833483	0.11387531586791802
0.31900531675527927	0.09253826642478453
0.3200053334222237	0.1038635904839857
0.3210053500891682	0.08402627991276765
0.32200536675611263	0.10179682588756679
0.32300538342305707	0.06988509065858899
0.3240054000900015	0.11613304002044177
0.325005416756946	0.06479284885481615
0.32600543342389043	0.0638977571043358
0.32700545009083487	0.02643642706863892
0.3280054667577793	0.08148909750301561
0.3290054834247238	0.12255961343847606
0.33000550009166824	0.08830109170115881
0.3310055167586127	0.04424437356341158
0.3320055334255571	0.10967741356956168
0.33300555009250155	0.10334009110812645
0.33400556675944604	0.06069929570359889
0.3350055834263905	0.09300059359359719
0.3360056000933349	0.03400114949379117
0.33700561676027935	0.1077900116804679
0.33800563342722384	0.0390335093303428
0.3390056500941683	0.04989428990644326
0.3400056667611127	0.043041299658711514
0.34100568342805715	0.09058024470129039
0.3420057000950016	0.04002398432522927
0.3430057167619461	0.12407471651324474
0.3440057334288905	0.06930865221538096
0.34500575009583495	0.11041771977838806
0.3460057667627794	0.043538052196592084
0.3470057834297239	0.09787159684143162
0.3480058000966683	0.10044161833980333
0.34900581676361275	0.07947352429940589
0.3500058334305572	0.10901372304689809
0.3510058500975017	0.10200126388041515
0.3520058667644461	0.0546419831377515
0.35300588343139055	0.056507542021884044
0.354005900098335	0.06962212966734004
0.35500591676527943	0.05500663503367056
0.3560059334322239	0.05088760950362775
0.35700595009916836	0.03305158513784662
0.3580059667661128	0.12539666582171852
0.35900598343305723	0.11605616732956861
0.3600060001000017	0.11197869205784805
0.36100601676694616	0.08646820029213484
0.3620060334338906	0.07323213938515057
0.36300605010083503	0.09212944111561605
0.36400606676777947	0.07573430199803739
0.36500608343472396	0.04454109730742252
0.3660061001016684	0.1024188980470525
0.36700611676861283	0.06318702845925347
0.36800613343555727	0.09150729149595875
0.36900615010250176	0.1242332517550471
0.3700061667694462	0.11824261869207997
0.37100618343639064	0.11999196024812109
0.37200620010333507	0.043410299658675475
0.37300621677027956	0.08515712399058734
0.374006233437224	0.07797874650794373
0.37500625010416844	0.04539941826522433
0.3760062667711129	0.13571493107687513
0.3770062834380573	0.08005719794766707
0.3780063001050018	0.05822823407134522
0.37900631677194624	0.13743236330918684
0.3800063334388907	0.03906851242286027
0.3810063501058351	0.028767244643077904
0.3820063667727796	0.0848279882608971
0.38300638343972404	0.13055320155911754
0.3840064001066685	0.1187114629560377
0.3850064167736129	0.14325339840397103
0.38600643344055735	0.09114890689924653
0.38700645010750184	0.06310094505665392
0.3880064667744463	0.05821434509679707
0.3890064834413907	0.10196073016659472
0.39000650010833515	0.12024313605175665
0.39100651677527964	0.12908826067337065
0.3920065334422241	0.08659208746358615
0.3930065501091685	0.04016739611502442
0.39400656677611295	0.10505423217575173
0.3950065834430574	0.0694959254511214
0.3960066001100019	0.08613148106555245
0.3970066167769463	0.09585859896798171
0.39800663344389076	0.08095385552758252
0.3990066501108352	0.08075831638255593
0.4000066667777797	0.1395233143592937
0.4010066834447241	0.11284766761966226
0.40200670011166856	0.09703322800734847
0.403006716778613	0.1126672097652282
0.4040067334455575	0.07898714805902855
0.4050067501125019	0.10009847596516665
0.40600676677944636	0.05998493532219725
0.4070067834463908	0.10594956897552232
0.40800680011333523	0.12837751895299673
0.4090068167802797	0.09471095865112313
0.41000683344722416	0.10481671656496609
0.4110068501141686	0.10661735251184204
0.41200686678111303	0.043660507232818155
0.4130068834480575	0.02417503647548165
0.41400690011500196	0.12080539990656415
0.4150069167819464	0.11265124492112712
0.41600693344889084	0.12990352509390582
0.4170069501158353	0.09444926579841151
0.41800696678277977	0.07827526002735027
0.4190069834497242	0.12845661791203744
0.42000700011666864	0.09373941271160048
0.4210070167836131	0.04447758995723787
0.42200703345055757	0.05842894709684898
0.423007050117502	0.049364212680880426
0.42400706678444644	0.0455561910599305
0.4250070834513909	0.09799474966295184
0.42600710011833537	0.049867667171996935
0.4270071167852798	0.10753598663232122
0.42800713345222424	0.07683890910121748
0.4290071501191687	0.0720084760717041
0.4300071667861131	0.040356532528950176
0.4310071834530576	0.12280442797816295
0.43200720012000204	0.13917392169299592
0.4330072167869465	0.03531160815807395
0.4340072334538909	0.09875685723647334
0.4350072501208354	0.04474327398660514
0.43600726678777985	0.13016150140212535
0.4370072834547243	0.06147390797874343
0.4380073001216687	0.0743828837366884
0.43900731678861316	0.041013177972985065
0.44000733345555765	0.0804534548664644
0.4410073501225021	0.050377557548796144
0.4420073667894465	0.09540213404462204
0.44300738345639096	0.03338429331634846
0.44400740012333545	0.11567264398996258
0.4450074167902799	0.12021344792451126
0.4460074334572243	0.0488461884319468
0.44700745012416876	0.049227113133110734
0.44800746679111325	0.10198860148343762
0.4490074834580577	0.032722865703928114
0.4500075001250021	0.11232357860230796
0.45100751679194656	0.10007711245391981
0.452007533458891	0.03623459314897772
0.4530075501258355	0.04772067417062389
0.4540075667927799	0.07743879905081966
0.45500758345972436	0.07741465373347745
0.4560076001266688	0.08537962187469561
0.4570076167936133	0.12656878696502666
0.45800763346055773	0.05864355034038509
0.45900765012750216	0.08459934164545521
0.4600076667944466	0.09369156332857052
0.46100768346139104	0.13434384532465332
0.46200770012833553	0.11973435685464065
0.46300771679527997	0.07270969662896143
0.4640077334622244	0.10882603668445408
0.46500775012916884	0.05588203034764397
0.46600776679611333	0.048906316157575
0.46700778346305777	0.07274441034994901
0.4680078001300022	0.06782569247935108
0.46900781679694664	0.12365735174728765
0.4700078334638911	0.10688763155653226
0.47100785013083557	0.057914360352713946
0.47200786679778	0.09910129590500114
0.47300788346472444	0.14377971576118184
0.4740079001316689	0.043414620512562035
0.47500791679861337	0.027285003514540666
0.4760079334655578	0.033781328439504765
0.47700795013250225	0.11888966336627782
0.4780079667994467	0.042790410220183026
0.4790079834663912	0.1029715106195843
0.4800080001333356	0.08842705169238667
0.48100801680028005	0.10742774055953666
0.4820080334672245	0.0709973383444073
0.4830080501341689	0.04428544742491789
0.4840080668011134	0.04347969019015983
0.48500808346805785	0.04828654809430294
0.4860081001350023	0.10037712744154419
0.4870081168019467	0.029335057591575103
0.4880081334688912	0.08913776672521238
0.48900815013583565	0.10397422193694845
0.4900081668027801	0.1393159874442462
0.4910081834697245	0.12147150186617986
0.49200820013666896	0.10736250553410559
0.49300821680361345	0.11808066949255562
0.4940082334705579	0.0790706657288012
0.4950082501375023	0.06081869987143604
0.49600826680444676	0.12171801317196758
0.49700828347139125	0.07562761761829744
0.4980083001383357	0.07286622418955274
0.4990083168052801	0.05540910326829871
0.5000083334722246	0.12351793475533748
0.501008350139169	0.07755555308416746
0.5020083668061135	0.036040453292471644
0.5030083834730579	0.09159438966500053
0.5040084001400024	0.09500962234158106
0.5050084168069469	0.07111740173952134
0.5060084334738912	0.07565778771424438
0.5070084501408357	0.09074918426424985
0.5080084668077802	0.11144204782057184
0.5090084834747246	0.07134236815265212
0.5100085001416691	0.040445744153888866
0.5110085168086135	0.08366033613259001
0.512008533475558	0.0780923733077689
0.5130085501425025	0.03362133010440465
0.5140085668094468	0.11549948031985287
0.5150085834763913	0.0721463008927473
0.5160086001433357	0.11657649835190172
0.5170086168102802	0.0658187705768145
0.5180086334772247	0.12322323765166501
0.5190086501441691	0.07123440807691148
0.5200086668111136	0.07351858512249068
0.5210086834780581	0.10205066796809463
0.5220087001450024	0.10822901110879016
0.5230087168119469	0.08743079710304641
0.5240087334788913	0.026145189451957828
0.5250087501458358	0.024415723344326005
0.5260087668127803	0.12960104377992354
0.5270087834797247	0.08734337677292085
0.5280088001466692	0.056620995766211976
0.5290088168136136	0.04095574967835739
0.530008833480558	0.051355907243104584
0.5310088501475025	0.05417864317847404
0.5320088668144469	0.03635815074112135
0.5330088834813914	0.08397161451951121
0.5340089001483358	0.13139518414514206
0.5350089168152803	0.05279565472458886
0.5360089334822248	0.07564608703560324
0.5370089501491692	0.05775213423639639
0.5380089668161137	0.08169607125797806
0.5390089834830581	0.06149804982273636
0.5400090001500025	0.08155876266526521
0.541009016816947	0.047708976865592466
0.5420090334838914	0.12292059089013306
0.5430090501508359	0.06743090843670152
0.5440090668177804	0.11934904155562912
0.5450090834847248	0.10693088613965154
0.5460091001516693	0.072485987790806
0.5470091168186136	0.10535509748521096
0.5480091334855581	0.09899361521051322
0.5490091501525026	0.10797467701597449
0.550009166819447	0.06971616498987812
0.5510091834863915	0.08564868740901523
0.552009200153336	0.052768211580187185
0.5530092168202804	0.06328758609010575
0.5540092334872249	0.03373383115164576
0.5550092501541692	0.12027185138363253
0.5560092668211137	0.055306904535468104
0.5570092834880582	0.03350857499222417
0.5580093001550026	0.03258552597790414
0.5590093168219471	0.08472803615461232
0.5600093334888915	0.11848970919475656
0.561009350155836	0.09847681626371538
0.5620093668227805	0.02899424222323015
0.5630093834897248	0.08173205391021632
0.5640094001566693	0.109400303853284
0.5650094168236138	0.07086708074757225
0.5660094334905582	0.09586495865810891
0.5670094501575027	0.12330355730135782
0.5680094668244471	0.05458674752892736
0.5690094834913916	0.15507251221133078
0.5700095001583361	0.0838119184680178
0.5710095168252804	0.0862532608784986
0.5720095334922249	0.11476260572234828
0.5730095501591693	0.11682140176519694
0.5740095668261138	0.08003561455698595
0.5750095834930583	0.05803639638833977
0.5760096001600027	0.10509950891809447
0.5770096168269472	0.07485413886953679
0.5780096334938916	0.06558016411383366
0.579009650160836	0.09339806662112701
0.5800096668277805	0.1303267340995917
0.5810096834947249	0.04497325101017315
0.5820097001616694	0.0732337120131763
0.5830097168286139	0.07839146084612288
0.5840097334955583	0.07420149178648157
0.5850097501625028	0.0467053938282191
0.5860097668294472	0.03995776653517137
0.5870097834963917	0.056170606016745964
0.5880098001633361	0.09143533118853667
0.5890098168302805	0.1011621748371582
0.590009833497225	0.08187163203485175
0.5910098501641694	0.13548539779674443
0.5920098668311139	0.047839066805980324
0.5930098834980584	0.07837484003069452
0.5940099001650028	0.0838021990647947
0.5950099168319473	0.11852455986887876
0.5960099334988918	0.07067303751289024
0.5970099501658361	0.03129476220235025
0.5980099668327806	0.06237992898064302
0.599009983499725	0.039930392220991553
0.6000100001666695	0.1114405779410937
0.601010016833614	0.04257111942678408
0.6020100335005584	0.028732922718896207
0.6030100501675029	0.04409728382686551
0.6040100668344472	0.0851558646631487
0.6050100835013917	0.09129118309513602
0.6060101001683362	0.04828232597691251
0.6070101168352806	0.0734578408783006
0.6080101335022251	0.06723133948426493
0.6090101501691695	0.11982238340455095
0.610010166836114	0.09341769953596175
0.6110101835030585	0.09256519426110665
0.6120102001700028	0.14281736345631793
0.6130102168369473	0.08076257426316338
0.6140102335038918	0.13435243160792773
0.6150102501708362	0.1198685531420961
0.6160102668377807	0.08773780876058011
0.6170102835047251	0.08102325808224989
0.6180103001716696	0.11874455613863542
0.6190103168386141	0.03425007668160372
0.6200103335055585	0.08681272972274287
0.621010350172503	0.021731364392801114
0.6220103668394473	0.035047291796898555
0.6230103835063918	0.07536580004486362
0.6240104001733363	0.06358777788620629
0.6250104168402807	0.05198011700555962
0.6260104335072252	0.10918857469108803
0.6270104501741697	0.03612375333152728
0.6280104668411141	0.08443872273619696
0.6290104835080585	0.07508662390967778
0.6300105001750029	0.10292307061014166
0.6310105168419474	0.022923290852121546
0.6320105335088919	0.047565610437514505
0.6330105501758363	0.05677124681873735
0.6340105668427808	0.042137610355064095
0.6350105835097252	0.07505468602999928
0.6360106001766697	0.023539985687482504
0.6370106168436142	0.07676494494257353
0.6380106335105585	0.09705734927321882
0.639010650177503	0.1213213486141237
0.6400106668444474	0.06335677682391935
0.6410106835113919	0.07771964943209214
0.6420107001783364	0.12279905840177933
0.6430107168452808	0.07372862170814128
0.6440107335122253	0.05102687375191614
0.6450107501791698	0.10697660511013518
0.6460107668461141	0.042496776595461305
0.6470107835130586	0.03994723479525175
0.648010800180003	0.045851461517242856
0.6490108168469475	0.0987239981844853
0.650010833513892	0.13698555296853407
0.6510108501808364	0.06014086108970971
0.6520108668477809	0.07566242918795962
0.6530108835147252	0.08502657935757969
0.6540109001816697	0.03240148175676986
0.6550109168486142	0.04100369164196126
0.6560109335155586	0.14389643052422976
0.6570109501825031	0.04903806859111537
0.6580109668494476	0.11842255887020853
0.659010983516392	0.10550907172868318
0.6600110001833365	0.09093143446307037
0.6610110168502809	0.07312390641093615
0.6620110335172253	0.04002004376387923
0.6630110501841698	0.11292919127048687
0.6640110668511142	0.11690801022045913
0.6650110835180587	0.1304829084644399
0.6660111001850031	0.03185278210307756
0.6670111168519476	0.07273592775993817
0.6680111335188921	0.063523837065049
0.6690111501858365	0.07060533720772262
0.670011166852781	0.1446328347847454
0.6710111835197254	0.08550631137082355
0.6720112001866698	0.05888596600238509
0.6730112168536143	0.13811123548618381
0.6740112335205587	0.14195133991401865
0.6750112501875032	0.08686753369261513
0.6760112668544477	0.11432015102464199
0.6770112835213921	0.08663556999495646
0.6780113001883366	0.10978585032131308
0.6790113168552809	0.036466179968464185
0.6800113335222254	0.1271132285500574
0.6810113501891699	0.1257558707165446
0.6820113668561143	0.05991956334244776
0.6830113835230588	0.09281843622267268
0.6840114001900032	0.10129036619153227
0.6850114168569477	0.024388661742637534
0.6860114335238922	0.12706488755081816
0.6870114501908365	0.10328882996385542
0.688011466857781	0.04331061743909399
0.6890114835247255	0.06435414564353269
0.6900115001916699	0.07588273699794594
0.6910115168586144	0.040700146509921
0.6920115335255588	0.09902295986987429
0.6930115501925033	0.07424317514428473
0.6940115668594478	0.09056062210926652
0.6950115835263921	0.034398359701108217
0.6960116001933366	0.10291790103713003
0.697011616860281	0.09102009776212427
0.6980116335272255	0.10820142767743839
0.69901165019417	0.08598285617672301
0.7000116668611144	0.07582391941646648
0.7010116835280589	0.13090867710733622
0.7020117001950034	0.10131767767582814
0.7030117168619477	0.11425171445569182
0.7040117335288922	0.026501706225676123
0.7050117501958366	0.04195991045427226
0.7060117668627811	0.03210221309757669
0.7070117835297256	0.1136290895337122
0.70801180019667	0.09961166415575211
0.7090118168636145	0.12493047271708847
0.7100118335305589	0.1207279812503487
0.7110118501975033	0.04474898490331308
0.7120118668644478	0.0911537108723714
0.7130118835313922	0.10506439276128753
0.7140119001983367	0.13194181031851027
0.7150119168652811	0.046636101532367025
0.7160119335322256	0.030535649117340496
0.7170119501991701	0.12365715790575023
0.7180119668661145	0.08137040128662072
0.719011983533059	0.07529682012990135
0.7200120002000034	0.12246544060173459
0.7210120168669478	0.08071690171726302
0.7220120335338923	0.05627847893414471
0.7230120502008367	0.043632635333933495
0.7240120668677812	0.11053167676655183
0.7250120835347257	0.018190854753972023
0.7260121002016701	0.09591371950374741
0.7270121168686146	0.07067492098300296
0.7280121335355589	0.03231340053083803
0.7290121502025034	0.129958405355073
0.7300121668694479	0.13179051674778444
0.7310121835363923	0.11914195839056305
0.7320122002033368	0.07204973529321047
0.7330122168702813	0.10340245996386177
0.7340122335372257	0.10282874303885828
0.7350122502041702	0.06754748063769597
0.7360122668711145	0.03914656947563695
0.737012283538059	0.09444254543955231
0.7380123002050035	0.04259486381990201
0.7390123168719479	0.10989864224204028
0.7400123335388924	0.040541940843185464
0.7410123502058368	0.07247653112348743
0.7420123668727813	0.06384664314138866
0.7430123835397258	0.059362091730594674
0.7440124002066701	0.09258324969075775
0.7450124168736146	0.11251980032466335
0.7460124335405591	0.12107066203095185
0.7470124502075035	0.03002635636616319
0.748012466874448	0.09972849439524452
0.7490124835413924	0.04384497664465975
0.7500125002083369	0.10220739996648943
0.7510125168752814	0.08660331946842673
0.7520125335422257	0.053242495635195015
0.7530125502091702	0.08322858540811737
0.7540125668761146	0.053265236356901544
0.7550125835430591	0.12309801218925497
0.7560126002100036	0.09998689755975991
0.757012616876948	0.10597312878817146
0.7580126335438925	0.11537037405044805
0.7590126502108369	0.03528729745666355
0.7600126668777814	0.06667169024901938
0.7610126835447258	0.13165415577635375
0.7620127002116702	0.13128736917928893
0.7630127168786147	0.11937416838244577
0.7640127335455592	0.13408243979073992
0.7650127502125036	0.03320535626408404
0.7660127668794481	0.07053094831296855
0.7670127835463925	0.04558966168609428
0.768012800213337	0.08358381877544964
0.7690128168802814	0.049102863064174024
0.7700128335472258	0.08634516352205773
0.7710128502141703	0.046436551850141214
0.7720128668811147	0.09695676751658078
0.7730128835480592	0.12943775193001839
0.7740129002150037	0.10573217723522926
0.7750129168819481	0.10347727551200128
0.7760129335488926	0.09838441724292414
0.777012950215837	0.04038324173251378
0.7780129668827814	0.019668026465863932
0.7790129835497259	0.056625662648156744
0.7800130002166703	0.10289014313361866
0.7810130168836148	0.04041158084115801
0.7820130335505593	0.050597342761836535
0.7830130502175037	0.06453013602920557
0.7840130668844482	0.0685264070200808
0.7850130835513925	0.0854129608812117
0.786013100218337	0.12148941129011172
0.7870131168852815	0.08952901761297001
0.7880131335522259	0.026959306654124993
0.7890131502191704	0.09777291648709319
0.7900131668861148	0.0654356739547307
0.7910131835530593	0.0630887481972192
0.7920132002200038	0.059425417759479016
0.7930132168869481	0.05772280949568577
0.7940132335538926	0.06779794500222183
0.7950132502208371	0.10367401463247691
0.7960132668877815	0.07757450012212659
0.797013283554726	0.05606970038097835
0.7980133002216704	0.1020109447550316
0.7990133168886149	0.13103905150374895
0.8000133335555594	0.11051959286356036
0.8010133502225038	0.08185636633883275
0.8020133668894482	0.07254108361763821
0.8030133835563926	0.04592284072562361
0.8040134002233371	0.06933436246601724
0.8050134168902816	0.04087541831537767
0.806013433557226	0.06726870416854601
0.8070134502241705	0.04752844482155111
0.808013466891115	0.11371749671259959
0.8090134835580594	0.09808891142884203
0.8100135002250038	0.09335223377377727
0.8110135168919482	0.05458317184452416
0.8120135335588927	0.09636656374336208
0.8130135502258372	0.09051732805829757
0.8140135668927816	0.08006544862973634
0.8150135835597261	0.10817761862954345
0.8160136002266705	0.061249940405952955
0.817013616893615	0.09962211364499096
0.8180136335605594	0.06380190195415916
0.8190136502275038	0.07171223539832705
0.8200136668944483	0.030063217941894517
0.8210136835613928	0.04363896263944713
0.8220137002283372	0.07533612985020485
0.8230137168952817	0.08623609034813062
0.8240137335622261	0.021336258662216168
0.8250137502291706	0.05458157930102205
0.826013766896115	0.0402192220451803
0.8270137835630594	0.10299155874861053
0.8280138002300039	0.03927529866544021
0.8290138168969483	0.04544740384262241
0.8300138335638928	0.10635521680864095
0.8310138502308373	0.11400290154660708
0.8320138668977817	0.1019206839410092
0.8330138835647262	0.10969345286891112
0.8340139002316705	0.018536460863193698
0.835013916898615	0.07635911071840608
0.8360139335655595	0.04666704496017983
0.8370139502325039	0.11374177655100938
0.8380139668994484	0.07856137199429443
0.8390139835663929	0.03508411777058859
0.8400140002333373	0.0687822405268749
0.8410140169002818	0.10966474858653102
0.8420140335672262	0.10102648518871143
0.8430140502341706	0.07667138659867759
0.8440140669011151	0.08698228773183588
0.8450140835680595	0.11966755060100213
0.846014100235004	0.10314663638350023
0.8470141169019484	0.11876919010549022
0.8480141335688929	0.11041075678328455
0.8490141502358374	0.07135191995755114
0.8500141669027818	0.10715888269869328
0.8510141835697262	0.11864625070483499
0.8520142002366707	0.10299787530308284
0.8530142169036151	0.08605720586070943
0.8540142335705596	0.11569070105044409
0.855014250237504	0.016966169049246662
0.8560142669044485	0.09307595454292417
0.857014283571393	0.1331784891677294
0.8580143002383374	0.08220917255444776
0.8590143169052818	0.11067313505500265
0.8600143335722262	0.0486830382823602
0.8610143502391707	0.0635945864327671
0.8620143669061152	0.05729625807831236
0.8630143835730596	0.10028718588647104
0.8640144002400041	0.040984254655947086
0.8650144169069485	0.056066365166975836
0.866014433573893	0.028215344179349112
0.8670144502408375	0.05006499935944972
0.8680144669077818	0.11030791756591479
0.8690144835747263	0.03935833360623224
0.8700145002416708	0.10437195315130868
0.8710145169086152	0.045957670853908936
0.8720145335755597	0.05168348496226053
0.8730145502425041	0.11742875414416602
0.8740145669094486	0.03716910223620724
0.8750145835763931	0.08118709194529675
0.8760146002433374	0.07366233454351953
0.8770146169102819	0.10404558673960072
0.8780146335772263	0.055399735646384084
0.8790146502441708	0.04367890505482719
0.8800146669111153	0.10502145854766627
0.8810146835780597	0.05110129569078125
0.8820147002450042	0.05584048618902788
0.8830147169119487	0.0856551114815495
0.884014733578893	0.028629461868481386
0.8850147502458375	0.0842656127708492
0.8860147669127819	0.09939057406518563
0.8870147835797264	0.09333821775652015
0.8880148002466709	0.12177231165957901
0.8890148169136153	0.06659040515142631
0.8900148335805598	0.08487161139998098
0.8910148502475042	0.055895491920321755
0.8920148669144486	0.12932127547456157
0.8930148835813931	0.10865658845587932
0.8940149002483375	0.12781315901733023
0.895014916915282	0.0809527704177597
0.8960149335822265	0.02866324750852963
0.8970149502491709	0.11445989079623689
0.8980149669161154	0.11857517080456205
0.8990149835830598	0.06225178222170623
0.9000150002500042	0.048943713848496016
0.9010150169169487	0.036622148743767055
0.9020150335838931	0.12331970146679837
0.9030150502508376	0.06108500982898679
0.904015066917782	0.10709533716145139
0.9050150835847265	0.09371880632194741
0.906015100251671	0.10115304733958597
0.9070151169186154	0.07247474337350963
0.9080151335855599	0.09815656878181969
0.9090151502525042	0.03292516415217974
0.9100151669194487	0.06696343184110543
0.9110151835863932	0.10265511004123783
0.9120152002533376	0.039294175132065824
0.9130152169202821	0.0209265659980321
0.9140152335872266	0.09812649834427908
0.915015250254171	0.11778709506532739
0.9160152669211155	0.09086760591622711
0.9170152835880598	0.057109515444109166
0.9180153002550043	0.016863092914496693
0.9190153169219488	0.07797017392638927
0.9200153335888932	0.06280203189926287
0.9210153502558377	0.08874240782626833
0.9220153669227821	0.09762376359962396
0.9230153835897266	0.040306381465480025
0.9240154002566711	0.10183923901837422
0.9250154169236154	0.10936491748318436
0.9260154335905599	0.11252099565308694
0.9270154502575044	0.04740515290353917
0.9280154669244488	0.08516616046370443
0.9290154835913933	0.041306878846108966
0.9300155002583377	0.06864366507762464
0.9310155169252822	0.07201091988677233
0.9320155335922267	0.0761678413148624
0.933015550259171	0.0333726096833862
0.9340155669261155	0.11317082263220841
0.9350155835930599	0.0813986871452835
0.9360156002600044	0.09295144713875657
0.9370156169269489	0.029351385153919315
0.9380156335938933	0.06482908589121744
0.9390156502608378	0.13518998688923545
0.9400156669277822	0.08262225665349929
0.9410156835947266	0.07656886967981474
0.9420157002616711	0.11967405294708344
0.9430157169286155	0.11698024573357796
0.94401573359556	0.07737311266571172
0.9450157502625045	0.09937708051679817
0.9460157669294489	0.11739445609348013
0.9470157835963934	0.10320703359176725
0.9480158002633378	0.09269650033586131
0.9490158169302823	0.12050546184155962
0.9500158335972267	0.03667529305238222
0.9510158502641711	0.0497321948626871
0.9520158669311156	0.08509442712040632
0.95301588359806	0.10488082326568075
0.9540159002650045	0.04002770600368058
0.955015916931949	0.12297622321724218
0.9560159335988934	0.034139465043069306
0.9570159502658379	0.05561542657585169
0.9580159669327823	0.05179079307132264
0.9590159835997267	0.1015498750882644
0.9600160002666712	0.046178218711320954
0.9610160169336156	0.10541850221493546
0.9620160336005601	0.06087107126265783
0.9630160502675046	0.09157312175505512
0.964016066934449	0.10389106574963537
0.9650160836013935	0.0744027091764209
0.9660161002683378	0.06970827435175266
0.9670161169352823	0.14074581368281108
0.9680161336022268	0.09440770698545078
0.9690161502691712	0.1036915993168322
0.9700161669361157	0.12356828102938248
0.9710161836030601	0.09541883921657511
0.9720162002700046	0.10365706370242407
0.9730162169369491	0.08983145686193403
0.9740162336038934	0.11067861512054172
0.9750162502708379	0.10012603282501474
0.9760162669377824	0.09835884657464802
0.9770162836047268	0.0736617929633396
0.9780163002716713	0.058331130339878884
0.9790163169386157	0.04636951639377833
0.9800163336055602	0.12162682057285677
0.9810163502725047	0.09917506820808551
0.982016366939449	0.13621948486732388
0.9830163836063935	0.07522050182102269
0.9840164002733379	0.06473216720272058
0.9850164169402824	0.1020227295709895
0.9860164336072269	0.0656304428681273
0.9870164502741713	0.04792978208563947
0.9880164669411158	0.1196792866680333
0.9890164836080603	0.04836980526010068
0.9900165002750047	0.12110164077719912
0.9910165169419491	0.07308535031791778
0.9920165336088935	0.04687681185486838
0.993016550275838	0.0357526466722067
0.9940165669427825	0.12799386203862037
0.9950165836097269	0.09842971257214884
0.9960166002766714	0.10727353581814024
0.9970166169436158	0.04558493693859613
0.9980166336105603	0.06918528774455118
0.9990166502775047	0.08303757445717914
1.0000166669444492	0.11175928310191736
1.0010166836113936	0.034490357332321794
1.002016700278338	0.11935908426877205
1.0030167169452826	0.11332501822858666
1.004016733612227	0.09352730902818986
1.0050167502791714	0.08887644688519326
1.0060167669461157	0.02584509143052501
1.0070167836130604	0.017827809947308957
1.0080168002800047	0.07140353327364671
1.0090168169469491	0.11551158655953192
1.0100168336138937	0.08180802817592805
1.011016850280838	0.09692631001102595
1.0120168669477825	0.07953927328432993
1.013016883614727	0.0720177192263561
1.0140169002816715	0.09949295190999169
1.0150169169486158	0.07484182906697776
1.0160169336155604	0.035406894759971705
1.0170169502825048	0.08313842129267125
1.0180169669494492	0.04921929120684442
1.0190169836163936	0.057748316008841914
1.0200170002833382	0.1268498107729758
1.0210170169502826	0.055852498891039534
1.022017033617227	0.10740603184165874
1.0230170502841716	0.0706748678005018
1.024017066951116	0.11279013349110732
1.0250170836180603	0.1208240190156807
1.026017100285005	0.07988819331532315
1.0270171169519493	0.07767633987965414
1.0280171336188937	0.07220286306200055
1.0290171502858383	0.12932609182852386
1.0300171669527827	0.06012271295207398
1.031017183619727	0.04159357637951796
1.0320172002866714	0.08481132690306914
1.033017216953616	0.04536095432357255
1.0340172336205604	0.03636962371323244
1.0350172502875048	0.057913499496581755
1.0360172669544494	0.06169400037064506
1.0370172836213938	0.11088199046572464
1.0380173002883382	0.05722171292370257
1.0390173169552828	0.04059489111083203
1.0400173336222271	0.08868782645137248
1.0410173502891715	0.07626755700420892
1.0420173669561161	0.0835054059977755
1.0430173836230605	0.12461920126959475
1.044017400290005	0.054808392189416036
1.0450174169569493	0.0747941108673495
1.0460174336238939	0.12817184760465639
1.0470174502908383	0.08835639816032774
1.0480174669577826	0.11657762086578369
1.0490174836247272	0.11099183875460658
1.0500175002916716	0.08093176258324783
1.051017516958616	0.03126074385561489
1.0520175336255606	0.06942019913898094
1.053017550292505	0.0449373499089068
1.0540175669594494	0.11477726369293598
1.055017583626394	0.1352988973236156
1.0560176002933384	0.10796840851257644
1.0570176169602827	0.08244244058129252
1.0580176336272271	0.06068230628526208
1.0590176502941717	0.1049549687321702
1.060017666961116	0.051858648529670454
1.0610176836280605	0.07988710108518804
1.062017700295005	0.0526215471710521
1.0630177169619495	0.05103295911519879
1.0640177336288938	0.04429119178926379
1.0650177502958385	0.10781933973826936
1.0660177669627828	0.1202531996580603
1.0670177836297272	0.07986984730040833
1.0680178002966716	0.07562391945665477
1.0690178169636162	0.12885274257258322
1.0700178336305606	0.10642592920224754
1.071017850297505	0.11708148997785965
1.0720178669644496	0.11058348452617446
1.073017883631394	0.10382505597173405
1.0740179002983383	0.10554384517614167
1.075017916965283	0.044814417742348636
1.0760179336322273	0.10448513749022505
1.0770179502991717	0.03559663834418546
1.0780179669661163	0.10106006236207121
1.0790179836330607	0.04834547152522409
1.080018000300005	0.08981560525378816
1.0810180169669494	0.043295629218689
1.082018033633894	0.11814548073892492
1.0830180503008384	0.09916962558969751
1.0840180669677828	0.1311476676135844
1.0850180836347274	0.07702154203013828
1.0860181003016718	0.08075184004068367
1.0870181169686162	0.09502706874125072
1.0880181336355608	0.03785554703084464
1.0890181503025052	0.025835027123118595
1.0900181669694495	0.04781450083636653
1.0910181836363941	0.09352265321223373
1.0920182003033385	0.08568024538474084
1.093018216970283	0.034292178034059415
1.0940182336372273	0.08075785555923216
1.0950182503041719	0.0734190059911433
1.0960182669711163	0.10849943866132326
1.0970182836380606	0.08536722927994278
1.0980183003050052	0.11550030582169483
1.0990183169719496	0.08572262886370663
1.100018333638894	0.0873832169113952
1.1010183503058386	0.0483179152572733
1.102018366972783	0.12096929364366354
1.1030183836397274	0.12911703720563455
1.104018400306672	0.033588648542174554
1.1050184169736164	0.12220672519662601
1.1060184336405607	0.0760241806414031
1.1070184503075051	0.11415834075630771
1.1080184669744497	0.041895202144550024
1.109018483641394	0.0781850517846475
1.1100185003083385	0.042315905756742433
1.111018516975283	0.1291417010593697
1.1120185336422275	0.11978364945841385
1.1130185503091719	0.07988900915417912
1.1140185669761165	0.11397274963977685
1.1150185836430608	0.05149112226756715
1.1160186003100052	0.1007693629383577
1.1170186169769498	0.07058970052220756
1.1180186336438942	0.05268451952939624
1.1190186503108386	0.04173210301576753
1.120018666977783	0.10616610504779155
1.1210186836447276	0.055623647469027364
1.122018700311672	0.058599475315382996
1.1230187169786163	0.05806722869436387
1.124018733645561	0.11121018398588327
1.1250187503125053	0.12187783630359755
1.1260187669794497	0.07866156937999391
1.1270187836463943	0.07707777330250469
1.1280188003133387	0.04706231609289088
1.129018816980283	0.13343043369861732
1.1300188336472277	0.08191841936137115
1.131018850314172	0.06285626737674757
1.1320188669811164	0.12251621007072087
1.1330188836480608	0.08877036669057327
1.1340189003150054	0.0682529671820042
1.1350189169819498	0.13140982622353586
1.1360189336488942	0.06815703619567448
1.1370189503158388	0.06773693285376194
1.1380189669827832	0.11051796079293905
1.1390189836497275	0.11564731166146631
1.1400190003166721	0.08121013129579255
1.1410190169836165	0.12288419369947412
1.142019033650561	0.10764351455686513
1.1430190503175053	0.10606295646049835
1.1440190669844499	0.11721342861896064
1.1450190836513943	0.12117896187197981
1.1460191003183386	0.09656161064155681
1.1470191169852832	0.03175928413231876
1.1480191336522276	0.09762101646601265
1.149019150319172	0.04252953887331849
1.1500191669861166	0.12247623379842035
1.151019183653061	0.024686019138647323
1.1520192003200054	0.1090689214928619
1.15301921698695	0.1255390556729662
1.1540192336538944	0.07752147561815008
1.1550192503208387	0.04942597939106062
1.1560192669877831	0.11894808716928613
1.1570192836547277	0.056124753888833374
1.158019300321672	0.04518707079220105
1.1590193169886165	0.09174446529313805
1.160019333655561	0.11572236864461485
1.1610193503225055	0.046465511821474945
1.1620193669894499	0.03385758303731887
1.1630193836563945	0.04497892212596667
1.1640194003233388	0.13330756858034676
1.1650194169902832	0.0941886222627964
1.1660194336572278	0.09490726066284752
1.1670194503241722	0.020760460089507472
1.1680194669911166	0.08009014213702179
1.169019483658061	0.052809185458538896
1.1700195003250056	0.1007914588683372
1.17101951699195	0.06260286122376799
1.1720195336588943	0.06299997356335299
1.173019550325839	0.060991185006642884
1.1740195669927833	0.04544621141755063
1.1750195836597277	0.05912720226846657
1.1760196003266723	0.13632169126792815
1.1770196169936167	0.0545712339879435
1.178019633660561	0.10681346370743633
1.1790196503275057	0.06565436823543246
1.18001966699445	0.09570974722974294
1.1810196836613944	0.041249688827286274
1.1820197003283388	0.042955019216538756
1.1830197169952834	0.11582905360971649
1.1840197336622278	0.1017112208952876
1.1850197503291722	0.03169786969238363
1.1860197669961168	0.033853308804617635
1.1870197836630612	0.028060849519313834
1.1880198003300055	0.12302109783074967
1.1890198169969501	0.056787321322960535
1.1900198336638945	0.09695425360721158
1.191019850330839	0.05523976163452167
1.1920198669977835	0.0697345778775084
1.1930198836647279	0.03852049716431176
1.1940199003316723	0.08712958084372152
1.1950199169986166	0.13032638359617518
1.1960199336655613	0.06558908831793117
1.1970199503325056	0.12392676299104026
1.19801996699945	0.0456846245775132
1.1990199836663946	0.1056166392768736
1.200020000333339	0.04381747517015041
1.2010200170002834	0.07862160430625269
1.202020033667228	0.12280497094486642
1.2030200503341724	0.05929133504291434
1.2040200670011167	0.10965334485904565
1.2050200836680613	0.11530613101453041
1.2060201003350057	0.06013922744235201
1.20702011700195	0.05497091519381368
1.2080201336688945	0.11618954176384805
1.209020150335839	0.0912038887792846
1.2100201670027835	0.10458291223200418
1.2110201836697279	0.04803364939966848
1.2120202003366725	0.11047829724426211
1.2130202170036168	0.11836652413691899
1.2140202336705612	0.05434904965740359
1.2150202503375058	0.039406026862122676
1.2160202670044502	0.08943624887905978
1.2170202836713946	0.042436617368992346
1.218020300338339	0.12526833223888012
1.2190203170052836	0.07061189687244891
1.220020333672228	0.09905498850227663
1.2210203503391723	0.10119985670093423
1.222020367006117	0.11969481343567993
1.2230203836730613	0.04621722107258275
1.2240204003400057	0.09922023018089735
1.2250204170069503	0.08127222345593639
1.2260204336738947	0.05766080069626306
1.227020450340839	0.049688743562966875
1.2280204670077837	0.112661341236132
1.229020483674728	0.12571934640374757
1.2300205003416724	0.040966210861315175
1.2310205170086168	0.06097567188323168
1.2320205336755614	0.029238340889836963
1.2330205503425058	0.05234658872455215
1.2340205670094502	0.05165359579875756
1.2350205836763948	0.063688301196153
1.2360206003433392	0.0719172040413035
1.2370206170102835	0.07452888926281889
1.2380206336772281	0.09114197799385283
1.2390206503441725	0.0805750936651693
1.240020667011117	0.09383414079796615
1.2410206836780615	0.024256829971589535
1.242020700345006	0.05987959356521785
1.2430207170119503	0.11098740222474546
1.2440207336788947	0.1345963522359612
1.2450207503458393	0.08926670377729998
1.2460207670127836	0.11367968280523087
1.247020783679728	0.11439638977285256
1.2480208003466726	0.049424739831130375
1.249020817013617	0.10646289574774252
1.2500208336805614	0.09256406066491156
1.251020850347506	0.10851615771804148
1.2520208670144504	0.10083441349335082
1.2530208836813947	0.08291156440970966
1.2540209003483394	0.08919394565559471
1.2550209170152837	0.08766620718678804
1.2560209336822281	0.04868264023358365
1.2570209503491725	0.0816419264689495
1.258020967016117	0.07324743825486843
1.2590209836830615	0.06689608955244511
1.2600210003500059	0.04798448857838149
1.2610210170169505	0.1453230376936604
1.2620210336838948	0.04677366708265495
1.2630210503508392	0.013593008462245737
1.2640210670177838	0.11814254626625743
1.2650210836847282	0.021190316311510124
1.2660211003516726	0.0612554564415997
1.2670211170186172	0.07510684154642888
1.2680211336855616	0.1316121627277797
1.269021150352506	0.06747678689544596
1.2700211670194503	0.0883868282439797
1.271021183686395	0.07849699973428928
1.2720212003533393	0.12752920882704027
1.2730212170202837	0.07208751579445324
1.2740212336872283	0.0434200064480733
1.2750212503541727	0.061920914512051145
1.276021267021117	0.07602227077401343
1.2770212836880617	0.0713308422313075
1.278021300355006	0.0960825927350737
1.2790213170219504	0.12118818214384325
1.2800213336888948	0.029922555511189112
1.2810213503558394	0.0642760806471787
1.2820213670227838	0.05821386720493007
1.2830213836897282	0.05754960211995134
1.2840214003566728	0.05288953657309159
1.2850214170236172	0.12219644205661992
1.2860214336905615	0.014846440706285071
1.2870214503575061	0.126975871570358
1.2880214670244505	0.07259003166521266
1.289021483691395	0.0963003636112652
1.2900215003583395	0.05361318969238808
1.291021517025284	0.02941230050750332
1.2920215336922283	0.0715547563374766
1.2930215503591727	0.10876577559603126
1.2940215670261173	0.07149660904857384
1.2950215836930616	0.06625097510353907
1.296021600360006	0.11567156435716122
1.2970216170269506	0.04791688412427305
1.298021633693895	0.0631232829278304
1.2990216503608394	0.11558430885121344
1.300021667027784	0.06115419371304438
1.3010216836947284	0.11452252075078971
1.3020217003616728	0.09829768434842842
1.3030217170286174	0.037837944988177864
1.3040217336955617	0.03385236216383416
1.3050217503625061	0.09380512429006677
1.3060217670294505	0.07167398930836454
1.307021783696395	0.07371323598912943
1.3080218003633395	0.08102222390255684
1.3090218170302839	0.07877219977600158
1.3100218336972285	0.09287638407511936
1.3110218503641728	0.022119261615850136
1.3120218670311172	0.06891072952701557
1.3130218836980618	0.11675281140594218
1.3140219003650062	0.0629340449369297
1.3150219170319506	0.0889256390571183
1.3160219336988952	0.08508873292902391
1.3170219503658396	0.052484740978035016
1.318021967032784	0.07817537779642275
1.3190219836997283	0.06285137763051357
1.320022000366673	0.07896487778890066
1.3210220170336173	0.10447709950216885
1.3220220337005617	0.09717302670125841
1.3230220503675063	0.10694844501827772
1.3240220670344507	0.07416178147354388
1.325022083701395	0.10428960326906227
1.3260221003683397	0.037784791796537
1.327022117035284	0.06899264523294754
1.3280221337022284	0.047768713329214695
1.329022150369173	0.05542079693465761
1.3300221670361174	0.035039196009107834
1.3310221837030618	0.1013426727272862
1.3320222003700062	0.08535872533191799
1.3330222170369508	0.07350985164480277
1.3340222337038952	0.0250144062116811
1.3350222503708395	0.0491744557991775
1.3360222670377842	0.0764799045504796
1.3370222837047285	0.08404080184115108
1.338022300371673	0.12337879318693043
1.3390223170386175	0.10002098038380147
1.340022333705562	0.09044116163542784
1.3410223503725063	0.03742793986733676
1.3420223670394509	0.07023651189624873
1.3430223837063953	0.11152177293418807
1.3440224003733396	0.09551711275215422
1.345022417040284	0.11780166287981379
1.3460224337072286	0.09487497381192482
1.347022450374173	0.054862331893270735
1.3480224670411174	0.047915073359663066
1.349022483708062	0.029122292873463955
1.3500225003750064	0.13675057527233017
1.3510225170419508	0.042391786803519536
1.3520225337088954	0.031070996499300667
1.3530225503758397	0.13053780105360416
1.3540225670427841	0.10855283910566904
1.3550225837097285	0.06546051249073084
1.356022600376673	0.10965175013658195
1.3570226170436175	0.07577554001394637
1.3580226337105619	0.08052676463459862
1.3590226503775065	0.08816360224930875
1.3600226670444509	0.04245282452595397
1.3610226837113952	0.10590640504518155
1.3620227003783398	0.06239372943823749
1.3630227170452842	0.08533565878997851
1.3640227337122286	0.07424421312382695
1.3650227503791732	0.0729740127684098
1.3660227670461176	0.05937018561491762
1.367022783713062	0.1301287477215862
1.3680228003800063	0.09946656381019407
1.369022817046951	0.05108723666031929
1.3700228337138953	0.115561488235462
1.3710228503808397	0.0764371039691608
1.3720228670477843	0.07592547881023447
1.3730228837147287	0.05055624266647407
1.374022900381673	0.12510511348763192
1.3750229170486177	0.0482602193700921
1.376022933715562	0.10916608894285333
1.3770229503825064	0.07489959955842442
1.378022967049451	0.09110124872142883
1.3790229837163954	0.05657150807384851
1.3800230003833398	0.042514902724639494
1.3810230170502842	0.09271257654554879
1.3820230337172288	0.1476701555978079
1.3830230503841732	0.03412202431437209
1.3840230670511176	0.09278673843550427
1.3850230837180622	0.05044905587739988
1.3860231003850065	0.1221476696912239
1.387023117051951	0.04092075010342629
1.3880231337188955	0.10620948322114054
1.38902315038584	0.055687740016487686
1.3900231670527843	0.06939367832298166
1.3910231837197289	0.10317137445153396
1.3920232003866733	0.09879915773364871
1.3930232170536176	0.08955137880990865
1.394023233720562	0.06522646177638394
1.3950232503875066	0.12965471771608794
1.396023267054451	0.06594043733748163
1.3970232837213954	0.0732706579864961
1.39802330038834	0.057365053660035824
1.3990233170552844	0.04723479235371664
1.4000233337222288	0.09758675238886934
1.4010233503891734	0.07053071635248503
1.4020233670561177	0.10725524992355805
1.4030233837230621	0.07140898811165916
1.4040234003900067	0.09364267371619785
1.405023417056951	0.02391892632104755
1.4060234337238955	0.10254895427830912
1.4070234503908399	0.1049323871224139
1.4080234670577845	0.05942842239826372
1.4090234837247289	0.06538213519070919
1.4100235003916732	0.04604892470633096
1.4110235170586178	0.04044062220940185
1.4120235337255622	0.08089178116720498
1.4130235503925066	0.031009836270850098
1.4140235670594512	0.12720822539375337
1.4150235837263956	0.06643707436125106
1.41602360039334	0.08502839071244364
1.4170236170602846	0.053243082463448874
1.418023633727229	0.08672220551342413
1.4190236503941733	0.0563771713488195
1.4200236670611177	0.04002456072075685
1.4210236837280623	0.03716195196255058
1.4220237003950067	0.10031393678950298
1.423023717061951	0.09710591561026322
1.4240237337288957	0.028458761372412336
1.42502375039584	0.059557881763701345
1.4260237670627844	0.12537611545736072
1.427023783729729	0.07922613210593724
1.4280238003966734	0.06308118232370036
1.4290238170636178	0.1216788669232011
1.4300238337305622	0.08622451890759493
1.4310238503975068	0.06307936245459728
1.4320238670644512	0.07250259957506787
1.4330238837313956	0.06400975936529048
1.4340239003983402	0.024598878203617454
1.4350239170652845	0.06917539944814592
1.436023933732229	0.09771653752084865
1.4370239503991735	0.029588602218335962
1.438023967066118	0.11433129121646274
1.4390239837330623	0.11934366292720919
1.4400240004000069	0.07755451649341678
1.4410240170669513	0.024545649061644803
1.4420240337338956	0.05896719880242956
1.44302405040084	0.034098821563846436
1.4440240670677846	0.0349278756866091
1.445024083734729	0.10001467126915639
1.4460241004016734	0.1481872276474516
1.447024117068618	0.1346733506725085
1.4480241337355624	0.13569282522448112
1.4490241504025068	0.12099985301534115
1.4500241670694514	0.07405743738726857
1.4510241837363957	0.049899137465439794
1.4520242004033401	0.08869505194976801
1.4530242170702847	0.04594125241617321
1.454024233737229	0.11454901316379743
1.4550242504041735	0.044004681153694734
1.4560242670711179	0.059104183404258825
1.4570242837380625	0.10953247182388456
1.4580243004050069	0.11399454318626062
1.4590243170719512	0.0600310424455166
1.4600243337388958	0.08812503309409157
1.4610243504058402	0.11174241439475256
1.4620243670727846	0.0872559080306128
1.4630243837397292	0.09497268507557632
1.4640244004066736	0.06449101870840544
1.465024417073618	0.07761686365299923
1.4660244337405626	0.05386983192009283
1.467024450407507	0.09761660062820443
1.4680244670744513	0.10079801712329091
1.4690244837413957	0.07425606983759302
1.4700245004083403	0.13982801845380885
1.4710245170752847	0.07651521100426731
1.472024533742229	0.09925449927093473
1.4730245504091737	0.12174418325325752
1.474024567076118	0.12395845309646593
1.4750245837430624	0.10441598733396432
1.476024600410007	0.11871895321664343
1.4770246170769514	0.1180470539120248
1.4780246337438958	0.057792680944978095
1.4790246504108404	0.08767469716085033
1.4800246670777848	0.1334848462065387
1.4810246837447292	0.09566731351361524
1.4820247004116736	0.11060130675744603
1.4830247170786182	0.09912291487278636
1.4840247337455625	0.0887838892378194
1.485024750412507	0.12271747249316287
1.4860247670794515	0.046943431474581555
1.487024783746396	0.0733577024169125
1.4880248004133403	0.11934178597426379
1.489024817080285	0.06061073521177754
1.4900248337472293	0.08758662547299406
1.4910248504141737	0.05174793719097949
1.4920248670811183	0.05839031577692376
1.4930248837480626	0.06294491572694978
1.494024900415007	0.08764832758115187
1.4950249170819514	0.0963191403559558
1.496024933748896	0.09845514517903022
1.4970249504158404	0.1272688539976429
1.4980249670827848	0.03266423873160565
1.4990249837497294	0.10622909020640176
1.5000250004166737	0.11486230812415472
1.5010250170836181	0.09205354541567073
1.5020250337505627	0.1078179382321984
1.5030250504175071	0.10642075611242419
1.5040250670844515	0.06989491629320513
1.5050250837513959	0.07657883049030245
1.5060251004183405	0.11952162120809082
1.5070251170852849	0.10303171090982194
1.5080251337522292	0.09720722445153328
1.5090251504191738	0.0264176758322873
1.5100251670861182	0.05734656547389874
1.5110251837530626	0.06494347264164677
1.5120252004200072	0.08364309538674429
1.5130252170869516	0.10869533145737251
1.514025233753896	0.04855426557548542
1.5150252504208406	0.03362003049335066
1.516025267087785	0.07452594372246667
1.5170252837547293	0.11100716615940037
1.5180253004216737	0.02818904678925311
1.5190253170886183	0.1091885813384917
1.5200253337555627	0.0663089081125087
1.521025350422507	0.06479460648424026
1.5220253670894517	0.06585910990641101
1.523025383756396	0.03705798839788528
1.5240254004233404	0.04058929516966545
1.525025417090285	0.02765568620159846
1.5260254337572294	0.08678572317445359
1.5270254504241738	0.1165921793404213
1.5280254670911184	0.08433303178695628
1.5290254837580628	0.1208765346146917
1.5300255004250072	0.09460159438107851
1.5310255170919516	0.14238174964987402
1.5320255337588962	0.046634759256807864
1.5330255504258405	0.08049515089644535
1.534025567092785	0.13569111521541807
1.5350255837597295	0.07298883018702787
1.536025600426674	0.1047153424018507
1.5370256170936183	0.056185447401248145
1.538025633760563	0.12583822792079438
1.5390256504275073	0.12235315038726852
1.5400256670944517	0.0895457377160695
1.5410256837613963	0.08477564602839462
1.5420257004283406	0.0843938357068055
1.543025717095285	0.14236486117241925
1.5440257337622294	0.04463207908929699
1.545025750429174	0.05414842662091901
1.5460257670961184	0.11893689879617772
1.5470257837630628	0.03296338697278996
1.5480258004300074	0.10542573901382024
1.5490258170969518	0.09300084067296632
1.5500258337638961	0.05258255168487959
1.5510258504308407	0.048005118211966874
1.5520258670977851	0.05861680497808364
1.5530258837647295	0.06417433768714587
1.554025900431674	0.046061788710878744
1.5550259170986185	0.05613701628980611
1.5560259337655629	0.08338257467516949
1.5570259504325072	0.07692010232823455
1.5580259670994518	0.06270033427269842
1.5590259837663962	0.11337260161163852
1.5600260004333406	0.0796649383046635
1.5610260171002852	0.05721911666079643
1.5620260337672296	0.07168728761780781
1.563026050434174	0.03928857444851837
1.5640260671011186	0.03359948343233256
1.565026083768063	0.10301136179105691
1.5660261004350073	0.07954739051977025
1.567026117101952	0.12639748124061434
1.5680261337688963	0.04428525351302615
1.5690261504358407	0.0804797369381993
1.570026167102785	0.04137177094735308
1.5710261837697297	0.09131399551609407
1.572026200436674	0.04998771027695547
1.5730262171036185	0.03375426250535697
1.574026233770563	0.10634270099211894
1.5750262504375074	0.08649321544594217
1.5760262671044518	0.019811115756237656
1.5770262837713964	0.10050812683331675
1.5780263004383408	0.10238882849877794
1.5790263171052852	0.0815434796078111
1.5800263337722296	0.06741658930941538
1.5810263504391742	0.11511532019635512
1.5820263671061185	0.10873462110103303
1.583026383773063	0.03080631272180553
1.5840264004400075	0.09698614157920547
1.585026417106952	0.10077639060211302
1.5860264337738963	0.06739595530993657
1.587026450440841	0.08950536228847547
1.5880264671077853	0.1203055167232734
1.5890264837747297	0.07278081159885509
1.5900265004416743	0.12369224497917476
1.5910265171086186	0.07024204821673771
1.592026533775563	0.114239689676741
1.5930265504425074	0.07241033450355155
1.594026567109452	0.12828633484759178
1.5950265837763964	0.09748968009358275
1.5960266004433408	0.11652004005973483
1.5970266171102854	0.07438553167767738
1.5980266337772298	0.025107226124176638
1.5990266504441741	0.06718204312080824
1.6000266671111187	0.055208477284530044
1.6010266837780631	0.08686478725010065
1.6020267004450075	0.03854228615225379
1.603026717111952	0.08417928017074558
1.6040267337788965	0.08065191040114371
1.6050267504458409	0.11363775422075867
1.6060267671127852	0.0512847616411745
1.6070267837797299	0.10705230771209112
1.6080268004466742	0.10984708114691015
1.6090268171136186	0.1097844562903765
1.6100268337805632	0.04081651783289833
1.6110268504475076	0.09401000059211016
1.612026867114452	0.052317668853198745
1.6130268837813966	0.06797111877983884
1.614026900448341	0.05664754998089334
1.6150269171152853	0.08137561904210928
1.61602693378223	0.03712006781310109
1.6170269504491743	0.07692906578509276
1.6180269671161187	0.062039023548605396
1.619026983783063	0.12030265218266283
1.6200270004500077	0.10302956118988926
1.621027017116952	0.08657688500429367
1.6220270337838965	0.07807117245624408
1.623027050450841	0.04853634707510237
1.6240270671177854	0.07686929899296382
1.6250270837847298	0.061800178180930164
1.6260271004516744	0.09565619136687549
1.6270271171186188	0.1089232215418412
1.6280271337855632	0.08634156157285529
1.6290271504525078	0.11027527905151716
1.6300271671194522	0.11779683641871914
1.6310271837863966	0.0944638816680153
1.632027200453341	0.0803801106904889
1.6330272171202855	0.09549559356599771
1.63402723378723	0.04734721424641092
1.6350272504541743	0.10174067290770615
1.636027267121119	0.10949308541034873
1.6370272837880633	0.040503943349748314
1.6380273004550077	0.1098484537263741
1.6390273171219523	0.050492926886056715
1.6400273337888966	0.12093065440227704
1.641027350455841	0.10910780193261597
1.6420273671227856	0.12250419830320271
1.64302738378973	0.06021166816136651
1.6440274004566744	0.0732480801781294
1.6450274171236188	0.1117424977412749
1.6460274337905634	0.1035085690396141
1.6470274504575078	0.07204348434013387
1.6480274671244521	0.07068344183180662
1.6490274837913967	0.10717773759739821
1.6500275004583411	0.10092121799548864
1.6510275171252855	0.09946842207142041
1.65202753379223	0.07917448581450258
1.6530275504591745	0.07790148153675908
1.6540275671261189	0.1197943764626612
1.6550275837930633	0.04364937353434392
1.6560276004600079	0.07261426192181103
1.6570276171269522	0.07297224619194961
1.6580276337938966	0.10087796014234612
1.6590276504608412	0.12537066360835186
1.6600276671277856	0.09576098248031623
1.66102768379473	0.04411833849652226
1.6620277004616746	0.03712373633361403
1.663027717128619	0.06428490382714819
1.6640277337955633	0.13992092742616027
1.665027750462508	0.06050114113952838
1.6660277671294523	0.11564761639673037
1.6670277837963967	0.10779877835366379
1.668027800463341	0.03562176543381481
1.6690278171302857	0.06676869871057567
1.67002783379723	0.12260351629921498
1.6710278504641745	0.09419690435257616
1.672027867131119	0.05955547558181985
1.6730278837980634	0.10489858100220262
1.6740279004650078	0.05293702912478168
1.6750279171319524	0.09950716249882897
1.6760279337988968	0.08813603949994178
1.6770279504658412	0.09454824493305525
1.6780279671327858	0.10451733736415682
1.6790279837997302	0.10626657773777651
1.6800280004666746	0.10439594328374617
1.681028017133619	0.1312531053950516
1.6820280338005635	0.0877863176557791
1.683028050467508	0.10111270559118107
1.6840280671344523	0.11033110822940803
1.685028083801397	0.11325809255896155
1.6860281004683413	0.04720517959122515
1.6870281171352857	0.08704229686749126
1.6880281338022303	0.04843320403618981
1.6890281504691746	0.08860606252168549
1.690028167136119	0.08400865701445462
1.6910281838030636	0.0558403007926731
1.692028200470008	0.054622076550660315
1.6930282171369524	0.08195201746411764
1.6940282338038968	0.10476043926708452
1.6950282504708414	0.12008012624320043
1.6960282671377858	0.06696117033806162
1.6970282838047301	0.1006809374876427
1.6980283004716747	0.05517608490198312
1.6990283171386191	0.045141982947296655
1.7000283338055635	0.09836052497495364
1.701028350472508	0.07557327326573524
1.7020283671394525	0.07601740466980883
1.7030283838063969	0.08135544456532869
1.7040284004733415	0.1086387167911461
1.7050284171402859	0.03208157729137473
1.7060284338072302	0.10829183789321176
1.7070284504741746	0.08500458802116856
1.7080284671411192	0.05657530172476001
1.7090284838080636	0.07077332177541143
1.710028500475008	0.14084810125512498
1.7110285171419526	0.12344273403857751
1.712028533808897	0.050757503077491606
1.7130285504758413	0.1135241390377673
1.714028567142786	0.056964730215519926
1.7150285838097303	0.06586462216300193
1.7160286004766747	0.08352806084986686
1.7170286171436193	0.08229818702129149
1.7180286338105637	0.08897326802560128
1.719028650477508	0.13809029103502812
1.7200286671444525	0.04663497296627292
1.721028683811397	0.1086754634013643
1.7220287004783414	0.05502150341071073
1.7230287171452858	0.08081142779156579
1.7240287338122304	0.11485351645433457
1.7250287504791748	0.13009731338180966
1.7260287671461192	0.03420350130334436
1.7270287838130638	0.1129813414624271
1.7280288004800082	0.05732541816972682
1.7290288171469526	0.0685741901519744
1.730028833813897	0.0947541259132688
1.7310288504808415	0.08281994246496306
1.732028867147786	0.1376422077782083
1.7330288838147303	0.06621092849173708
1.734028900481675	0.06829435777642294
1.7350289171486193	0.10232071434705432
1.7360289338155637	0.05109693140267918
1.7370289504825083	0.06902110294715438
1.7380289671494527	0.06777497922648723
1.739028983816397	0.07452239042080819
1.7400290004833416	0.12810280938739185
1.741029017150286	0.04218796769166584
1.7420290338172304	0.11283149122906794
1.7430290504841748	0.09136994189527141
1.7440290671511194	0.057325993116830426
1.7450290838180638	0.13822684344263483
1.7460291004850081	0.026438572924067674
1.7470291171519527	0.09271291330350498
1.7480291338188971	0.04788445610707248
1.7490291504858415	0.08567773808541601
1.7500291671527861	0.10040790446621888
1.7510291838197305	0.0675094914242635
1.7520292004866749	0.021913158963136878
1.7530292171536195	0.056612105426764044
1.7540292338205639	0.034013725085489104
1.7550292504875082	0.06590321809728937
1.7560292671544526	0.029841020657685756
1.7570292838213972	0.07472120542760052
1.7580293004883416	0.14477930078738022
1.759029317155286	0.0596512835743445
1.7600293338222306	0.09092503328972523
1.761029350489175	0.05148846829693124
1.7620293671561194	0.11563211319442963
1.763029383823064	0.13804126681233764
1.7640294004900083	0.07236621345171923
1.7650294171569527	0.10197694643652651
1.7660294338238973	0.042741899457511535
1.7670294504908417	0.11954493225300869
1.768029467157786	0.08788893429488989
1.7690294838247305	0.11483283661370128
1.770029500491675	0.1377847060389254
1.7710295171586194	0.10031840761203413
1.7720295338255638	0.04549305938378216
1.7730295504925084	0.12087826746232361
1.7740295671594528	0.11820331086637875
1.7750295838263972	0.08116848412816526
1.7760296004933418	0.09983295450845225
1.7770296171602862	0.059282234886824804
1.7780296338272306	0.08398231820498847
1.7790296504941752	0.10722567605063717
1.7800296671611195	0.05790218119741927
1.781029683828064	0.1090049131248055
1.7820297004950083	0.09137356501542904
1.783029717161953	0.08709792708110302
1.7840297338288973	0.02173666013646897
1.7850297504958417	0.13105580331565653
1.7860297671627863	0.07344684078957117
1.7870297838297307	0.09481093973517604
1.788029800496675	0.12020284057240005
1.7890298171636196	0.11143408042889902
1.790029833830564	0.07433389139092969
1.7910298504975084	0.061914485598660585
1.792029867164453	0.07293277375943809
1.7930298838313974	0.0465594288927295
1.7940299004983418	0.08230888997855268
1.7950299171652861	0.03480395315933208
1.7960299338322308	0.06300179285865322
1.7970299504991751	0.08827175089889121
1.7980299671661195	0.030233544920027302
1.7990299838330641	0.1269963121107116
1.8000300005000085	0.033950844759332605
1.8010300171669529	0.10298352881075641
1.8020300338338975	0.1074444200463278
1.8030300505008419	0.043469764071802156
1.8040300671677862	0.04909518731687042
1.8050300838347306	0.07884068391680114
1.8060301005016752	0.08169231529448595
1.8070301171686196	0.13887783828562236
1.808030133835564	0.06745045496515863
1.8090301505025086	0.08820977579934505
1.810030167169453	0.06908567175873893
1.8110301838363974	0.10762897633181792
1.812030200503342	0.12300159942201425
1.8130302171702863	0.11693216999280151
1.8140302338372307	0.10239895654151168
1.8150302505041753	0.07042528290627233
1.8160302671711197	0.029888639691932492
1.817030283838064	0.13590244943872903
1.8180303005050085	0.0852822077406581
1.819030317171953	0.1273414378073462
1.8200303338388975	0.03951815715570591
1.8210303505058418	0.08540507379505896
1.8220303671727864	0.05286695760627094
1.8230303838397308	0.11508736937336526
1.8240304005066752	0.1217106007804535
1.8250304171736198	0.05000306672119729
1.8260304338405642	0.05672274744157056
1.8270304505075086	0.09594326314263027
1.8280304671744532	0.08287876104218769
1.8290304838413975	0.024726927516890585
1.830030500508342	0.13142415542950597
1.8310305171752863	0.034361251785363596
1.832030533842231	0.048891175374807
1.8330305505091753	0.0772044388932121
1.8340305671761197	0.0921268589694338
1.8350305838430643	0.11818275780721929
1.8360306005100087	0.05004444295928997
1.837030617176953	0.07754463077529673
1.8380306338438976	0.10192860691733227
1.839030650510842	0.0812608476696368
1.8400306671777864	0.051203631737111205
1.841030683844731	0.0365336396626259
1.8420307005116754	0.10681597499686273
1.8430307171786198	0.046012860152818635
1.8440307338455642	0.11762625062148697
1.8450307505125088	0.046513801420142664
1.8460307671794531	0.07938246925144242
1.8470307838463975	0.025915108996098488
1.8480308005133421	0.04005565019362778
1.8490308171802865	0.06086533352842219
1.8500308338472309	0.05025376523356746
1.8510308505141755	0.1495551935723162
1.8520308671811199	0.03243761229361609
1.8530308838480642	0.10419799003043605
1.8540309005150089	0.07815589451451395
1.8550309171819532	0.029371885550623165
1.8560309338488976	0.13012931781294268
1.857030950515842	0.10500516803514529
1.8580309671827866	0.07237043711626111
1.859030983849731	0.04623420848120687
1.8600310005166754	0.008215986371420087
1.86103101718362	0.061381884041043944
1.8620310338505643	0.10963626609826799
1.8630310505175087	0.10950601525582622
1.8640310671844533	0.04588813649028908
1.8650310838513977	0.12996067620631058
1.866031100518342	0.11825439727667814
1.8670311171852865	0.11253647590310686
1.868031133852231	0.02513641563993393
1.8690311505191755	0.07170786942585555
1.8700311671861198	0.07945167671696524
1.8710311838530644	0.10485683566540287
1.8720312005200088	0.10359321292097912
1.8730312171869532	0.05093047923290139
1.8740312338538978	0.07957649991174265
1.8750312505208422	0.04300515252873181
1.8760312671877866	0.06803606575787605
1.8770312838547312	0.10395505996292495
1.8780313005216756	0.058234558473351655
1.87903131718862	0.07530076693182591
1.8800313338555643	0.07492577042923448
1.881031350522509	0.041292141666836805
1.8820313671894533	0.1319494698837254
1.8830313838563977	0.05534091274544937
1.8840314005233423	0.05465663900975359
1.8850314171902867	0.038006230427907954
1.886031433857231	0.12120113898350064
1.8870314505241756	0.06474903766515178
1.88803146719112	0.08976228698213984
1.8890314838580644	0.11931113671554845
1.890031500525009	0.07612119777182419
1.8910315171919534	0.09044813178847042
1.8920315338588978	0.11959412071467136
1.8930315505258422	0.023511424498862628
1.8940315671927868	0.0679743008004688
1.8950315838597311	0.1024785734443944
1.8960316005266755	0.09138648703728781
1.8970316171936201	0.08689472374794645
1.8980316338605645	0.12618322490637113
1.8990316505275089	0.09332386940174112
1.9000316671944535	0.04976872168129963
1.9010316838613979	0.024412951269616928
1.9020317005283423	0.11359007212846671
1.9030317171952869	0.04407708290983842
1.9040317338622312	0.10598266616352588
1.9050317505291756	0.10671478629373694
1.90603176719612	0.07391702571323362
1.9070317838630646	0.11963847288920934
1.908031800530009	0.09235435579366533
1.9090318171969534	0.08471834265806018
1.910031833863898	0.12717706945949286
1.9110318505308423	0.06866460793574622
1.9120318671977867	0.12357968864846831
1.9130318838647313	0.12726399984040426
1.9140319005316757	0.11615062091194159
1.91503191719862	0.05250084594912506
1.9160319338655647	0.09427666330000198
1.917031950532509	0.13213327353744284
1.9180319671994535	0.053727193015204414
1.9190319838663978	0.06731934245439163
1.9200320005333424	0.03615183122491758
1.9210320172002868	0.04924290691459096
1.9220320338672312	0.10017153655789271
1.9230320505341758	0.1358342674487667
1.9240320672011202	0.0982396465615562
1.9250320838680646	0.05605811579698709
1.9260321005350092	0.10689962354755228
1.9270321172019536	0.046236317883546235
1.928032133868898	0.07857871622899756
1.9290321505358425	0.0363766320834743
1.930032167202787	0.05686713906752961
1.9310321838697313	0.051046274531453245
1.9320322005366757	0.13300747895134896
1.9330322172036203	0.06371249869668802
1.9340322338705647	0.0763394779537802
1.935032250537509	0.06370459819274275
1.9360322672044536	0.05591361638980208
1.937032283871398	0.05793705492359598
1.9380323005383424	0.020141769306588928
1.939032317205287	0.10942237153057206
1.9400323338722314	0.07115087006045702
1.9410323505391758	0.056222532141030575
1.9420323672061202	0.12363552726826012
1.9430323838730648	0.08848246045557724
1.9440324005400091	0.020349269077042556
1.9450324172069535	0.11644193456783476
1.9460324338738981	0.07812505930722598
1.9470324505408425	0.08065286373756529
1.9480324672077869	0.057039408072922265
1.9490324838747315	0.10886530797202063
1.9500325005416759	0.05388207291745443
1.9510325172086203	0.07157759350044988
1.9520325338755649	0.05579845102817428
1.9530325505425092	0.08267238728030167
1.9540325672094536	0.05067985265472571
1.955032583876398	0.04864023474361161
1.9560326005433426	0.0943909154212872
1.957032617210287	0.047836683684155897
1.9580326338772314	0.09268366260791948
1.959032650544176	0.062105655013023994
1.9600326672111203	0.05080018176592189
1.9610326838780647	0.030056627806384066
1.9620327005450093	0.12629736877591227
1.9630327172119537	0.08433196174232105
1.964032733878898	0.07890316915225785
1.9650327505458427	0.11029158083022819
1.966032767212787	0.10171126022456484
1.9670327838797315	0.035965939884912035
1.9680328005466758	0.06092793553421023
1.9690328172136204	0.07810637568848933
1.9700328338805648	0.07811127310997518
1.9710328505475092	0.09205367970860248
1.9720328672144538	0.11552969477465029
1.9730328838813982	0.055424570303369496
1.9740329005483426	0.12358163568281699
1.9750329172152872	0.08637495324443693
1.9760329338822316	0.055691457871315186
1.977032950549176	0.1211475313710992
1.9780329672161205	0.071675449503755
1.979032983883065	0.0959188160315591
1.9800330005500093	0.10491801995802107
1.9810330172169537	0.09407505692795314
1.9820330338838983	0.04074899005422132
1.9830330505508427	0.10660338633951788
1.984033067217787	0.034781695296737795
1.9850330838847317	0.08059141384770918
1.986033100551676	0.12595834970204742
1.9870331172186204	0.05919770404754291
1.988033133885565	0.08340957017678957
1.9890331505525094	0.07511555589494866
1.9900331672194538	0.11931352219192982
1.9910331838863984	0.0901473162446152
1.9920332005533428	0.12811700514475546
1.9930332172202871	0.08266267764555704
1.9940332338872315	0.06536569936161278
1.9950332505541761	0.10628672300460505
1.9960332672211205	0.12307721230360939
1.997033283888065	0.03171093945966967
1.9980333005550095	0.09210617390026964
1.9990333172219539	0.11484694510652403
2.0000333338888985	0.09191624975484901
2.0010333505558426	0.06288668388137279
2.0020333672227872	0.06681744996918393
2.003033383889732	0.10890893140549662
2.004033400556676	0.016932710847169442
2.0050334172236206	0.028428948030931298
2.006033433890565	0.1211883875847196
2.0070334505575094	0.1213755570595362
2.008033467224454	0.08350087953703685
2.0090334838913986	0.06355636125200415
2.0100335005583427	0.03482536030284874
2.0110335172252873	0.07251755563847732
2.0120335338922315	0.09588091749417164
2.013033550559176	0.10763389221622238
2.0140335672261207	0.03996470786064363
2.015033583893065	0.026191668043695694
2.0160336005600095	0.11997590241949224
2.017033617226954	0.06292696725219112
2.0180336338938982	0.052008780829184545
2.019033650560843	0.06297208144005258
2.0200336672277874	0.06687479980338884
2.0210336838947316	0.1287155247058512
2.022033700561676	0.08210605828656206
2.023033717228621	0.04518426898557158
2.024033733895565	0.08456854155309566
2.0250337505625096	0.025101955723036504
2.026033767229454	0.08620272787980308
2.0270337838963983	0.0866933627981518
2.028033800563343	0.12643408525246977
2.0290338172302875	0.09809896967618885
2.0300338338972317	0.07150817346960364
2.0310338505641763	0.09781579699555121
2.032033867231121	0.07410651306367431
2.033033883898065	0.044819834444217596
2.0340339005650097	0.10537194712069169
2.0350339172319543	0.07538006936549425
2.0360339338988984	0.0841188163377422
2.037033950565843	0.08423585216153609
2.038033967232787	0.10911876258628964
2.039033983899732	0.03862112243416929
2.0400340005666764	0.09194693245315234
2.0410340172336205	0.05601398313788559
2.042034033900565	0.020843472801141787
2.0430340505675098	0.12227117992967626
2.044034067234454	0.05949368479514976
2.0450340839013985	0.07397514260954483
2.046034100568343	0.10411614296894438
2.0470341172352873	0.0677577721061921
2.048034133902232	0.051811816991992464
2.0490341505691765	0.03034293512210038
2.0500341672361206	0.11198318885277124
2.0510341839030652	0.11741132644791877
2.05203420057001	0.07683683010433345
2.053034217236954	0.04477675081172704
2.0540342339038986	0.06471861218615535
2.055034250570843	0.05963741076265018
2.0560342672377874	0.053763426141718244
2.057034283904732	0.11438786732856099
2.0580343005716766	0.03842412223206232
2.0590343172386207	0.06188249825130493
2.0600343339055653	0.040675202443250236
2.0610343505725095	0.02866227460968808
2.062034367239454	0.0994430886792041
2.0630343839063987	0.13382632364418534
2.064034400573343	0.04373570123686404
2.0650344172402875	0.05081827102126306
2.066034433907232	0.09671082417001568
2.0670344505741762	0.11133787786448644
2.068034467241121	0.09272066779520044
2.0690344839080654	0.0593291238172783
2.0700345005750096	0.08584106320668494
2.071034517241954	0.12589626566546597
2.072034533908899	0.10490915050605688
2.073034550575843	0.049133524477960266
2.0740345672427876	0.05367350976986811
2.075034583909732	0.048259475719888895
2.0760346005766763	0.046693427104517966
2.077034617243621	0.03891707887568656
2.0780346339105655	0.07073113174896244
2.0790346505775097	0.03938547854139983
2.0800346672444543	0.05762900195382292
2.081034683911399	0.12325775998443934
2.082034700578343	0.09136104859746416
2.0830347172452877	0.10621220670624262
2.0840347339122323	0.0465138881781727
2.0850347505791764	0.12235063123881884
2.086034767246121	0.0883031498176055
2.087034783913065	0.09282420394109088
2.08803480058001	0.06350602460587654
2.0890348172469544	0.0867383041950373
2.0900348339138985	0.03598375445595656
2.091034850580843	0.05321915531410625
2.0920348672477878	0.060290751456420565
2.093034883914732	0.06715393777958664
2.0940349005816765	0.05317216578218278
2.095034917248621	0.032271156033694244
2.0960349339155653	0.0835231899215858
2.09703495058251	0.10962221942906798
2.0980349672494545	0.10925254415667017
2.0990349839163986	0.06946130087749967
2.1000350005833432	0.08230689009011201
2.101035017250288	0.07687558729501659
2.102035033917232	0.04210732172986716
2.1030350505841766	0.040850892244264796
2.104035067251121	0.10202243937583459
2.1050350839180654	0.13772004654894388
2.10603510058501	0.04783139486732088
2.1070351172519546	0.06389805552505268
2.1080351339188987	0.09675233516042192
2.1090351505858433	0.10071046949712982
2.110035167252788	0.12582308142902804
2.111035183919732	0.14037093704377787
2.1120352005866767	0.06853617167695149
2.113035217253621	0.034011956482881286
2.1140352339205655	0.02650874420624312
2.11503525058751	0.05423815855723468
2.1160352672544542	0.13128374305397267
2.117035283921399	0.04385848926340011
2.1180353005883434	0.10094557550336038
2.1190353172552876	0.08128099164078313
2.120035333922232	0.12563904680812998
2.121035350589177	0.06063176068235223
2.122035367256121	0.05528541070764263
2.1230353839230656	0.10971505705536319
2.12403540059001	0.10121529743211229
2.1250354172569543	0.12992404549942757
2.126035433923899	0.07783467506437512
2.1270354505908435	0.0911907339153807
2.1280354672577877	0.1080215716957127
2.1290354839247323	0.11032131589687987
2.130035500591677	0.10748323789221906
2.131035517258621	0.06350066388874469
2.1320355339255657	0.08680914170717613
2.1330355505925103	0.10839063702806381
2.1340355672594544	0.09595929873811318
2.135035583926399	0.12691071851443012
2.136035600593343	0.10955075716544434
2.137035617260288	0.02995928916823378
2.1380356339272324	0.036394614151982765
2.1390356505941766	0.12298379923193879
2.140035667261121	0.02654136029109557
2.1410356839280658	0.060136221435517966
2.14203570059501	0.09743528961376595
2.1430357172619545	0.13118804118184316
2.144035733928899	0.030269646442677968
2.1450357505958433	0.04485954501796491
2.146035767262788	0.03650505009125317
2.1470357839297325	0.07389038802645678
2.1480358005966766	0.05221592777959302
2.1490358172636213	0.05448890186289421
2.150035833930566	0.09911508937801447
2.15103585059751	0.04082159557394383
2.1520358672644546	0.028102058302993685
2.153035883931399	0.035330131485579536
2.1540359005983434	0.12072206104631872
2.155035917265288	0.08740571409854841
2.1560359339322326	0.09879782613344514
2.1570359505991767	0.030083660003613025
2.1580359672661213	0.04542909075453161
2.159035983933066	0.05435516030566079
2.16003600060001	0.10076356475245975
2.1610360172669547	0.07468732926321235
2.162036033933899	0.06734686249856002
2.1630360506008435	0.046946691934825584
2.164036067267788	0.054314697373567936
2.1650360839347322	0.043612305009906815
2.166036100601677	0.03827418138932335
2.1670361172686214	0.12135512944194968
2.1680361339355656	0.09652642993498033
2.16903615060251	0.09075165895678121
2.170036167269455	0.05203230069889167
2.171036183936399	0.04798743005722103
2.1720362006033436	0.12460950886270805
2.173036217270288	0.05810021005106252
2.1740362339372323	0.07174987179444199
2.175036250604177	0.13061692369692895
2.1760362672711215	0.13220503091695585
2.1770362839380657	0.05627252341468302
2.1780363006050103	0.09137062677537991
2.179036317271955	0.12195431604791608
2.180036333938899	0.07770044825991136
2.1810363506058437	0.0671987996315543
2.1820363672727883	0.03966501030874034
2.1830363839397324	0.10068986248157161
2.184036400606677	0.050179452069921054
2.1850364172736216	0.10301423545155448
2.186036433940566	0.11537461764054563
2.1870364506075104	0.04144962414110793
2.1880364672744546	0.04753215358450946
2.189036483941399	0.10283772897141111
2.1900365006083438	0.10893116946995902
2.191036517275288	0.041224851650669685
2.1920365339422325	0.0399278080714277
2.193036550609177	0.049398023488904014
2.1940365672761213	0.12252960841308823
2.195036583943066	0.08685943895480258
2.1960366006100105	0.09478550691052529
2.1970366172769547	0.06689063065731096
2.1980366339438993	0.060544697416120716
2.199036650610844	0.11568232984402535
2.200036667277788	0.07625139869556301
2.2010366839447326	0.10765461668319756
2.2020367006116772	0.07666986705676393
2.2030367172786214	0.07571226503005415
2.204036733945566	0.07010990739383426
2.2050367506125106	0.08417886765395852
2.2060367672794547	0.12127898144625666
2.2070367839463993	0.09463567768950944
2.208036800613344	0.06137068823237727
2.209036817280288	0.08916829330037593
2.2100368339472327	0.06675620275593165
2.211036850614177	0.07021388036487548
2.2120368672811215	0.06141071862586456
2.213036883948066	0.12338764133470514
2.2140369006150102	0.13260950749717704
2.215036917281955	0.0934359472949124
2.2160369339488994	0.05488754056524354
2.2170369506158436	0.07468589900488848
2.218036967282788	0.07409806625467859
2.219036983949733	0.12215707831457322
2.220037000616677	0.10889067713289736
2.2210370172836216	0.08256111730167624
2.222037033950566	0.04694728493666665
2.2230370506175103	0.09243838221008548
2.224037067284455	0.14104896467322944
2.2250370839513995	0.08026850023052894
2.2260371006183437	0.09781442231378489
2.2270371172852883	0.09335847361854487
2.228037133952233	0.07247983200216518
2.229037150619177	0.10810220951494567
2.2300371672861217	0.11355064292152771
2.2310371839530663	0.08287494859658122
2.2320372006200104	0.13347400424383798
2.233037217286955	0.017949455587923015
2.2340372339538996	0.09006528853213448
2.235037250620844	0.06085246520811299
2.2360372672877884	0.036620672595736134
2.2370372839547326	0.047706961819987605
2.238037300621677	0.10627155645466797
2.2390373172886218	0.10453730451028495
2.240037333955566	0.09381824340101638
2.2410373506225105	0.040147206413411005
2.242037367289455	0.031062731158055037
2.2430373839563993	0.05325972224568834
2.244037400623344	0.05414021542707465
2.2450374172902885	0.05906395203819858
2.2460374339572327	0.04325772181025629
2.2470374506241773	0.07875322785456867
2.248037467291122	0.06659712159591435
2.249037483958066	0.04245954886547823
2.2500375006250106	0.12078266320632695
2.2510375172919552	0.06531991726940202
2.2520375339588994	0.07712418663823002
2.253037550625844	0.08664661945992307
2.2540375672927886	0.09095609364122696
2.2550375839597327	0.07532658766004403
2.2560376006266774	0.1327099245765953
2.257037617293622	0.07550181904985233
2.258037633960566	0.08521152771763578
2.2590376506275107	0.09011634424501799
2.2600376672944553	0.08238947962322082
2.2610376839613995	0.024374285522380947
2.262037700628344	0.08442548131488356
2.2630377172952882	0.06069846676856227
2.264037733962233	0.0507250478117664
2.2650377506291774	0.09212299352275975
2.2660377672961216	0.1157105499575564
2.267037783963066	0.055211387144243285
2.268037800630011	0.06926282417729286
2.269037817296955	0.02501483535815835
2.2700378339638996	0.10441243211038856
2.271037850630844	0.10011934154998656
2.2720378672977883	0.04406608236134415
2.273037883964733	0.02907644769693168
2.2740379006316775	0.12114932092804093
2.2750379172986217	0.1119314783048989
2.2760379339655663	0.07868241887278286
2.277037950632511	0.06819487688426969
2.278037967299455	0.03941096106281798
2.2790379839663997	0.026543879017589707
2.2800380006333443	0.1258263900171963
2.2810380173002884	0.11241131920283656
2.282038033967233	0.08590378482169589
2.2830380506341776	0.05936163376522203
2.284038067301122	0.06558140076927406
2.2850380839680664	0.03688366229119527
2.2860381006350106	0.0803037598629652
2.287038117301955	0.08806607111517861
2.2880381339688998	0.05050740100502055
2.289038150635844	0.06125565302045156
2.2900381673027885	0.050957686223455465
2.291038183969733	0.07861370989526326
2.2920382006366773	0.08038248700366282
2.293038217303622	0.04031533127128754
2.2940382339705665	0.041882999174554736
2.2950382506375107	0.03315404380529482
2.2960382673044553	0.1412514345905516
2.2970382839714	0.07629768092072349
2.298038300638344	0.05554362620358905
2.2990383173052886	0.06033448522528941
2.3000383339722332	0.04266343690199827
2.3010383506391774	0.06735298146827604
2.302038367306122	0.09456212927746663
2.3030383839730666	0.0767143374556125
2.3040384006400108	0.06111804273771033
2.3050384173069554	0.10466445380159817
2.3060384339739	0.0314630091992949
2.307038450640844	0.12082497327991913
2.3080384673077887	0.04558084564163149
2.3090384839747333	0.08883771757297095
2.3100385006416775	0.02822735691710647
2.311038517308622	0.09398292721594931
2.3120385339755662	0.13014024908022012
2.313038550642511	0.09252356307204025
2.3140385673094555	0.0676254297691285
2.3150385839763996	0.07536089262644104
2.316038600643344	0.11832035346081808
2.317038617310289	0.051241062206009075
2.318038633977233	0.09446815236587125
2.3190386506441776	0.08543538109678026
2.320038667311122	0.06366046693769023
2.3210386839780663	0.11330846532624896
2.322038700645011	0.04879007271302731
2.3230387173119555	0.11712888522135628
2.3240387339788997	0.04064159377046285
2.3250387506458443	0.07395250495127965
2.326038767312789	0.0702752247654587
2.327038783979733	0.07321922515444018
2.3280388006466777	0.021571013227699217
2.3290388173136223	0.04626757820393616
2.3300388339805664	0.10442086260076065
2.331038850647511	0.11182087957197923
2.3320388673144556	0.07801713919699918
2.3330388839814	0.02934608030830242
2.3340389006483444	0.06732641071818685
2.335038917315289	0.02666146671331764
2.336038933982233	0.14462629866113455
2.3370389506491778	0.05426000013522649
2.338038967316122	0.048588708906079414
2.3390389839830665	0.11789822486460345
2.340039000650011	0.14137114624635957
2.3410390173169553	0.11076259998803419
2.3420390339839	0.08110569065029496
2.3430390506508445	0.1008486509953699
2.3440390673177887	0.07702357449545946
2.3450390839847333	0.0199823115331619
2.346039100651678	0.07487509003024857
2.347039117318622	0.1104962351672909
2.3480391339855666	0.11787346533646384
2.3490391506525112	0.04014596497565259
2.3500391673194554	0.02800945594673069
2.3510391839864	0.10194091665206925
2.3520392006533446	0.07727563903162497
2.3530392173202888	0.06402339709512381
2.3540392339872334	0.09548875871605156
2.355039250654178	0.10940374271044641
2.356039267321122	0.08844095338212181
2.3570392839880667	0.0396845415593959
2.3580393006550113	0.044199013625308606
2.3590393173219555	0.09670554179795175
2.3600393339889	0.05138067808691237
2.3610393506558442	0.06618080325402625
2.362039367322789	0.1377537600128185
2.3630393839897335	0.03957941327625625
2.3640394006566776	0.11983025224501205
2.365039417323622	0.08812772965745486
2.366039433990567	0.0922228678675299
2.367039450657511	0.09575173846951836
2.3680394673244556	0.0710450452954603
2.3690394839914	0.10514096874446843
2.3700395006583443	0.09823434507492317
2.371039517325289	0.12244312692801931
2.3720395339922336	0.050327116467266585
2.3730395506591777	0.050075629080556655
2.3740395673261223	0.09064877321235468
2.375039583993067	0.04772065237371673
2.376039600660011	0.05504869862128278
2.3770396173269557	0.10804245506590182
2.3780396339939003	0.07608729132591695
2.3790396506608444	0.02710955918449375
2.380039667327789	0.10654249692474514
2.3810396839947336	0.048858225775657196
2.382039700661678	0.03395915617600899
2.3830397173286224	0.11670804815646146
2.384039733995567	0.09060216048895244
2.385039750662511	0.12266963187354615
2.3860397673294558	0.05683545566540414
2.3870397839964	0.08664627381880544
2.3880398006633445	0.07907266609802668
2.389039817330289	0.10092896728697572
2.3900398339972333	0.051324588514511604
2.391039850664178	0.12368419777217432
2.3920398673311225	0.0832944909690881
2.3930398839980667	0.0583023986344835
2.3940399006650113	0.11896036827595724
2.395039917331956	0.062198038176846035
2.3960399339989	0.12504084378415806
2.3970399506658446	0.06227948260674128
2.3980399673327892	0.043664089293477024
2.3990399839997334	0.08050080315780472
2.400040000666678	0.04400787394594178
2.4010400173336226	0.05455502579966853
2.4020400340005668	0.08436179734382576
2.4030400506675114	0.11460800062444551
2.404040067334456	0.05432226272733133
2.4050400840014	0.1235667209795723
2.4060401006683447	0.08612365118221893
2.4070401173352893	0.031646479783672514
2.4080401340022335	0.07766131901152959
2.409040150669178	0.10295975064631835
2.4100401673361227	0.10431742678699384
2.411040184003067	0.06774985291029546
2.4120402006700115	0.08298937908720476
2.4130402173369556	0.11149048069141743
2.4140402340039	0.03174519923854274
2.415040250670845	0.10962457366960957
2.416040267337789	0.10687187072783101
2.4170402840047336	0.08166755894915224
2.418040300671678	0.10329549095359339
2.4190403173386223	0.11564668189872768
2.420040334005567	0.05602815426120584
2.4210403506725116	0.09623526234502629
2.4220403673394557	0.06352820892359641
2.4230403840064003	0.10098803948401187
2.424040400673345	0.09346766081020164
2.425040417340289	0.027826828363809057
2.4260404340072337	0.12220065542297513
2.4270404506741783	0.0388427011324589
2.4280404673411224	0.1166321373798185
2.429040484008067	0.1032799276495155
2.4300405006750116	0.09261608245363784
2.431040517341956	0.06544609707162877
2.4320405340089004	0.08185006959740436
2.433040550675845	0.10680017394779992
2.434040567342789	0.02403337408527099
2.4350405840097338	0.11431049517176586
2.436040600676678	0.05475475018143898
2.4370406173436225	0.06605476519479675
2.438040634010567	0.13835986234615266
2.4390406506775113	0.10220445317452029
2.440040667344456	0.07626608211240284
2.4410406840114005	0.11673262083340627
2.4420407006783447	0.04018982910424453
2.4430407173452893	0.11548325617841472
2.444040734012234	0.052111309605560985
2.445040750679178	0.10721422078149265
2.4460407673461226	0.050082170240816765
2.4470407840130672	0.04400045574891562
2.4480408006800114	0.053142811690239655
2.449040817346956	0.11536414250824674
2.4500408340139006	0.10379379073971551
2.4510408506808448	0.08937154809433444
2.4520408673477894	0.050063709710146086
2.453040884014734	0.02183306848540574
2.454040900681678	0.07671144625118195
2.4550409173486227	0.008040243927001197
2.4560409340155673	0.08289050007664216
2.4570409506825115	0.0664223484057928
2.458040967349456	0.0761191817283582
2.4590409840164007	0.08367595292913896
2.460041000683345	0.11452742118947845
2.4610410173502895	0.04082493577873467
2.4620410340172336	0.09763890158571512
2.4630410506841782	0.13562664178719006
2.464041067351123	0.08986961142423998
2.465041084018067	0.12817452695678255
2.4660411006850116	0.13527202263375512
2.467041117351956	0.10160399975017911
2.4680411340189004	0.07738027418223933
2.469041150685845	0.08913507811160484
2.4700411673527896	0.06160629506700939
2.4710411840197337	0.0808841600477495
2.4720412006866783	0.03663532988612754
2.473041217353623	0.1178440012936576
2.474041234020567	0.0680551747969508
2.4750412506875117	0.02550711426756929
2.4760412673544563	0.10796308761831694
2.4770412840214004	0.11575243193528016
2.478041300688345	0.05055954671718988
2.4790413173552897	0.062157412712162796
2.480041334022234	0.1095457118660057
2.4810413506891784	0.08073361758044398
2.482041367356123	0.06902534729102364
2.483041384023067	0.08457675900838678
2.484041400690012	0.06508087273693326
2.4850414173569564	0.10891736879184577
2.4860414340239005	0.05020244296947639
2.487041450690845	0.09814064761092908
2.4880414673577893	0.12572613272228686
2.489041484024734	0.0770520655219888
2.4900415006916785	0.0428266052944053
2.4910415173586227	0.043958729291120935
2.4920415340255673	0.042304625832421866
2.493041550692512	0.06269555738761899
2.494041567359456	0.09708574202390617
2.4950415840264006	0.0817479952420083
2.4960416006933452	0.05245326610982959
2.4970416173602894	0.13304843440870334
2.498041634027234	0.09773251775122925
2.4990416506941786	0.06322565935079735
2.5000416673611228	0.13134681370980172
2.5010416840280674	0.1013070709390061
2.502041700695012	0.10892192358850408
2.503041717361956	0.10860362473533956
2.5040417340289007	0.047554545021076006
2.5050417506958453	0.12797530617573294
2.5060417673627895	0.03792840746550487
2.507041784029734	0.1135288308709308
2.5080418006966787	0.0894573239836211
2.509041817363623	0.017369410581451965
2.5100418340305675	0.12581761134169958
2.5110418506975116	0.07798600983839217
2.5120418673644562	0.07693753382420987
2.513041884031401	0.09754697886439752
2.514041900698345	0.059919015649193205
2.5150419173652896	0.12338015816797146
2.516041934032234	0.04205481084113744
2.5170419506991784	0.11670935999771835
2.518041967366123	0.14018685256633412
2.5190419840330676	0.11285995550882727
2.5200420007000117	0.06589025587380097
2.5210420173669563	0.06134038891432674
2.522042034033901	0.10150309829313353
2.523042050700845	0.10791988700521754
2.5240420673677897	0.10637939084742601
2.5250420840347343	0.05702906316926464
2.5260421007016785	0.0647057454784367
2.527042117368623	0.07769541156603249
2.5280421340355677	0.0792016874814549
2.529042150702512	0.03263180232333065
2.5300421673694564	0.05510675828422726
2.531042184036401	0.04134373419204789
2.532042200703345	0.07430507365686631
2.53304221737029	0.07751438516870486
2.5340422340372344	0.09246563230640115
2.5350422507041785	0.03831189009011151
2.536042267371123	0.08112354853513798
2.5370422840380673	0.12941925227710832
2.538042300705012	0.1377669612654874
2.5390423173719565	0.059694760545834565
2.5400423340389007	0.032517194485254176
2.5410423507058453	0.029138478113963612
2.54204236737279	0.0482732788082229
2.543042384039734	0.061923580014870604
2.5440424007066786	0.08860013047396645
2.5450424173736232	0.08906415956722
2.5460424340405674	0.05424378856792898
2.547042450707512	0.10381641643281073
2.5480424673744566	0.052586977342164706
2.5490424840414008	0.11164077542252014
2.5500425007083454	0.05154352246979001
2.55104251737529	0.0911658055024665
2.552042534042234	0.03765635732951804
2.5530425507091787	0.046192648069904224
2.5540425673761233	0.040997767196941384
2.5550425840430675	0.08324271576007627
2.556042600710012	0.07450805552018071
2.5570426173769567	0.0735673129565649
2.558042634043901	0.07233449283808727
2.5590426507108455	0.11013231593026704
2.5600426673777896	0.03037668684131663
2.5610426840447342	0.11297491204321962
2.562042700711679	0.052715696109066124
2.563042717378623	0.10135437342612943
2.5640427340455676	0.10993439063754304
2.565042750712512	0.12594228379783423
2.5660427673794564	0.05685523548111117
2.567042784046401	0.11893015338379909
2.5680428007133456	0.10534766199762208
2.5690428173802897	0.05720618591982466
2.5700428340472343	0.0700207783410963
2.571042850714179	0.047818523109777925
2.572042867381123	0.06169466260238797
2.5730428840480677	0.06138357291677369
2.5740429007150123	0.0720293167689761
2.5750429173819565	0.1104521514952465
2.576042934048901	0.12198242997564586
2.5770429507158457	0.1044349114073385
2.57804296738279	0.045463528327118016
2.5790429840497344	0.04327942219011641
2.580043000716679	0.10546074017301023
2.581043017383623	0.07204137707832055
2.582043034050568	0.054516800768787656
2.5830430507175124	0.1097116630023193
2.5840430673844565	0.14033796967948456
2.585043084051401	0.11139847316467204
2.5860431007183453	0.09645959953555826
2.58704311738529	0.04121212952951608
2.5880431340522345	0.05578456978136855
2.5890431507191787	0.11796398438678393
2.5900431673861233	0.09980318926852946
2.591043184053068	0.1294373131655317
2.592043200720012	0.07739845313011934
2.5930432173869566	0.0403181077887331
2.5940432340539012	0.01607567324016434
2.5950432507208454	0.12264565773719902
2.59604326738779	0.09409243416284663
2.5970432840547346	0.06639378133140873
2.5980433007216788	0.053527971515859515
2.5990433173886234	0.03389030547372572
2.600043334055568	0.1042680966777869
2.601043350722512	0.15219202641916998
2.6020433673894567	0.10684485730045436
2.6030433840564013	0.04953747209139265
2.6040434007233455	0.09962162027648286
2.60504341739029	0.1140832990167341
2.6060434340572347	0.04625813203138965
2.607043450724179	0.031077987044446094
2.6080434673911235	0.11065350641029323
2.609043484058068	0.08085287315871353
2.6100435007250122	0.09644936272874487
2.611043517391957	0.05159192325889922
2.612043534058901	0.1248716117879694
2.6130435507258456	0.10908109664666099
2.61404356739279	0.057107874999943326
2.6150435840597344	0.07076770171882804
2.616043600726679	0.09033938020688619
2.6170436173936236	0.032414525952436796
2.6180436340605677	0.11696098478958934
2.6190436507275123	0.07992024684415269
2.620043667394457	0.030734036132922457
2.621043684061401	0.10919458784137472
2.6220437007283457	0.11288685596302456
2.6230437173952903	0.0825728745221166
2.6240437340622345	0.08391707939146688
2.625043750729179	0.0627969276652212
2.6260437673961237	0.11977581295141332
2.627043784063068	0.03587777990269029
2.6280438007300124	0.12643206457906386
2.629043817396957	0.05151099364093209
2.630043834063901	0.06334893085140117
2.631043850730846	0.057279022641377256
2.6320438673977904	0.09124012170599785
2.6330438840647346	0.06390319209968787
2.634043900731679	0.08042082789605327
2.6350439173986233	0.045213336000588286
2.636043934065568	0.0361871501477948
2.6370439507325125	0.04446973074162472
2.6380439673994567	0.11382652378730156
2.6390439840664013	0.05406407812573874
2.640044000733346	0.10266206000393388
2.64104401740029	0.1126018639978439
2.6420440340672346	0.07278529353012754
2.6430440507341793	0.11445943845964257
2.6440440674011234	0.09630638593144632
2.645044084068068	0.029676390765105254
2.6460441007350126	0.09802711563077611
2.6470441174019568	0.10520126617325656
2.6480441340689014	0.02721997262271304
2.649044150735846	0.04858816500640248
2.65004416740279	0.08077281381189583
2.6510441840697347	0.08047047139384794
2.6520442007366793	0.026452213475721388
2.6530442174036235	0.12073326860250043
2.654044234070568	0.10412019293280045
2.6550442507375127	0.04449061547697013
2.656044267404457	0.04530068063817025
2.6570442840714015	0.043783386828820665
2.658044300738346	0.04893103113556575
2.6590443174052902	0.09756737954998543
2.660044334072235	0.0826108835373422
2.661044350739179	0.08049311548385768
2.6620443674061236	0.06075746122751707
2.663044384073068	0.07864316469598273
2.6640444007400124	0.12131669609766259
2.665044417406957	0.08142453007793862
2.6660444340739016	0.06806609665737906
2.6670444507408457	0.06786610128076004
2.6680444674077903	0.022970840126406794
2.669044484074735	0.07646402371012202
2.670044500741679	0.08850075199223119
2.6710445174086237	0.058703830853280445
2.6720445340755683	0.11394126093097648
2.6730445507425125	0.04158700675737382
2.674044567409457	0.13142762500177854
2.6750445840764017	0.13143700636633773
2.676044600743346	0.13150957463356214
2.6770446174102904	0.09769876472697535
2.678044634077235	0.028457088591141353
2.679044650744179	0.11595163263248051
2.680044667411124	0.06493446675147863
2.6810446840780684	0.08496064519099304
2.6820447007450126	0.10126063185120339
2.683044717411957	0.13072383651286096
2.6840447340789018	0.04717794186684994
2.685044750745846	0.09110005569943834
2.6860447674127905	0.09923134624571377
2.6870447840797347	0.06830321210187501
2.6880448007466793	0.057468524434470224
2.689044817413624	0.06772475978287536
2.690044834080568	0.03179258052821152
2.6910448507475127	0.09901516116285004
2.6920448674144573	0.041831587480120676
2.6930448840814014	0.0694296112109073
2.694044900748346	0.11270441879223798
2.6950449174152906	0.04819963532811233
2.696044934082235	0.044039181300284475
2.6970449507491794	0.030915957521910314
2.698044967416124	0.06463796504460248
2.699044984083068	0.03536603548328712
2.7000450007500127	0.07674462438361943
2.7010450174169574	0.06839099188890896
2.7020450340839015	0.12455364812599014
2.703045050750846	0.10339168088569728
2.7040450674177907	0.08961104838470806
2.705045084084735	0.10025213329325643
2.7060451007516795	0.07405000282804639
2.707045117418624	0.061472055449953135
2.7080451340855682	0.059653253542893046
2.709045150752513	0.12111774376997575
2.710045167419457	0.05654316232924727
2.7110451840864016	0.08834212320363241
2.712045200753346	0.049999542525615746
2.7130452174202904	0.10822090578096495
2.714045234087235	0.07756119243309693
2.7150452507541796	0.07894848607268076
2.7160452674211237	0.0388854076084443
2.7170452840880683	0.08207287410828558
2.718045300755013	0.05269413152416148
2.719045317421957	0.08487613023485875
2.7200453340889017	0.07271621019427339
2.7210453507558463	0.10490262947349349
2.7220453674227905	0.05374391645778805
2.723045384089735	0.1174219602255475
2.7240454007566797	0.11751522748153534
2.725045417423624	0.10005758095140733
2.7260454340905684	0.07640592423558742
2.727045450757513	0.0544015652676096
2.728045467424457	0.12613960042560945
2.729045484091402	0.04362073082320321
2.7300455007583464	0.09515279036467406
2.7310455174252906	0.11871787042164843
2.732045534092235	0.09142428834609816
2.7330455507591798	0.06992633476387485
2.734045567426124	0.04961436505035473
2.7350455840930685	0.1047595619001884
2.7360456007600127	0.1411982177910703
2.7370456174269573	0.05139410171564737
2.738045634093902	0.022083602632433978
2.739045650760846	0.09485515301490409
2.7400456674277907	0.08476791988862138
2.7410456840947353	0.09755260582774282
2.7420457007616794	0.07132622484804854
2.743045717428624	0.1336170608610187
2.7440457340955686	0.11554893573835363
2.745045750762513	0.07434668421642802
2.7460457674294574	0.06579289759168279
2.747045784096402	0.14264427781450964
2.748045800763346	0.02848438542232279
2.7490458174302908	0.07063927846800129
2.7500458340972354	0.0492015349505891
2.7510458507641795	0.10301975716204517
2.752045867431124	0.050541920304705834
2.7530458840980687	0.04066057442270547
2.754045900765013	0.10498385532339613
2.7550459174319575	0.06113266948112624
2.756045934098902	0.1387863293996687
2.7570459507658462	0.07923468618204807
2.758045967432791	0.056950960629138535
2.7590459840997354	0.04225521308455127
2.7600460007666796	0.11140186266994936
2.761046017433624	0.11866333762487
2.7620460341005684	0.12038429088285475
2.763046050767513	0.09235596345657729
2.7640460674344576	0.08362176241881034
2.7650460841014017	0.09251184160045639
2.7660461007683463	0.055149599233449295
2.767046117435291	0.08690618107583292
2.768046134102235	0.07129946787622922
2.7690461507691797	0.030453388961715244
2.7700461674361243	0.05880965142960491
2.7710461841030685	0.09889391446059408
2.772046200770013	0.09801177037532614
2.7730462174369577	0.09270881493236838
2.774046234103902	0.0978284922678395
2.7750462507708464	0.10762396670086428
2.776046267437791	0.09795044494072612
2.777046284104735	0.09137934878510062
2.77804630077168	0.09361466204140444
2.7790463174386244	0.12273978916268544
2.7800463341055686	0.09338851598283655
2.781046350772513	0.08317017616233532
2.7820463674394578	0.07307366816628645
2.783046384106402	0.09733666928682819
2.7840464007733465	0.05123426661510806
2.7850464174402907	0.082928869426658
2.7860464341072353	0.1331961053616126
2.78704645077418	0.048584699813105224
2.788046467441124	0.09177726046566041
2.7890464841080687	0.11197018265324567
2.7900465007750133	0.05450770438227972
2.7910465174419574	0.049816360678238976
2.792046534108902	0.0751615541984243
2.7930465507758466	0.060602777059358286
2.794046567442791	0.06397946205598593
2.7950465841097354	0.06019616172041027
2.79604660077668	0.05642684373314115
2.797046617443624	0.06132340917479844
2.7980466341105688	0.06939087767552152
2.7990466507775134	0.048677245872035105
2.8000466674444575	0.1223976406454511
2.801046684111402	0.11503788003834918
2.8020467007783467	0.08498947066247009
2.803046717445291	0.0897257615958635
2.8040467341122355	0.061368848571885494
2.80504675077918	0.024024114049979905
2.8060467674461242	0.09584064843549994
2.807046784113069	0.03591717780728221
2.8080468007800135	0.12929932884515766
2.8090468174469576	0.12389705843376811
2.810046834113902	0.09874989104995319
2.8110468507808464	0.11268474766291059
2.812046867447791	0.059067258041320736
2.8130468841147356	0.12000967955125692
2.8140469007816797	0.0895988959806901
2.8150469174486243	0.04464558661277151
2.816046934115569	0.037592550574383155
2.817046950782513	0.07405430681701879
2.8180469674494577	0.059687944933890125
2.8190469841164023	0.10942750074874662
2.8200470007833465	0.10225575939670584
2.821047017450291	0.14028057803514546
2.8220470341172357	0.08019215398353052
2.82304705078418	0.031538199830030166
2.8240470674511244	0.12928632954012537
2.825047084118069	0.042786227392478476
2.826047100785013	0.036816721422157875
2.827047117451958	0.08777624380996382
2.8280471341189024	0.07261774182029151
2.8290471507858466	0.03988444199980992
2.830047167452791	0.07738047566111275
2.8310471841197358	0.0992534600316482
2.83204720078668	0.125150079438483
2.8330472174536245	0.07838231771343672
2.834047234120569	0.09308585353048744
2.8350472507875133	0.0477993870261242
2.836047267454458	0.08940905122109566
2.837047284121402	0.0706738122364844
2.8380473007883467	0.03664758715009811
2.8390473174552913	0.06536266076629485
2.8400473341222354	0.10227852618239164
2.84104735078918	0.09907372043892645
2.8420473674561246	0.11075482111227912
2.843047384123069	0.061594019443100376
2.8440474007900134	0.06704148095971982
2.845047417456958	0.09998267475209112
2.846047434123902	0.09996035185947923
2.8470474507908468	0.10345777728322712
2.8480474674577914	0.1184637466920242
2.8490474841247355	0.06369522205915074
2.85004750079168	0.05349759040484706
2.8510475174586247	0.05381307361698726
2.852047534125569	0.09321351254032643
2.8530475507925135	0.10371064353967115
2.854047567459458	0.11013930937079548
2.8550475841264022	0.06295693990515928
2.856047600793347	0.016845241874870798
2.8570476174602915	0.10920448543772049
2.8580476341272356	0.11083873015580828
2.85904765079418	0.08438330727656598
2.8600476674611244	0.12438843922828816
2.861047684128069	0.07728217347577734
2.8620477007950136	0.07441193499090219
2.8630477174619577	0.016754926566234268
2.8640477341289023	0.11060748800314388
2.865047750795847	0.09403595472954342
2.866047767462791	0.029972606541664677
2.8670477841297357	0.06606626173395053
2.8680478007966803	0.08722902979902125
2.8690478174636245	0.14042154360840778
2.870047834130569	0.04066868833219968
2.8710478507975137	0.09615965573984228
2.872047867464458	0.03873610768098139
2.8730478841314024	0.06292781527813586
2.874047900798347	0.05865298516489213
2.875047917465291	0.1346742226412479
2.876047934132236	0.08556692179816591
2.8770479507991804	0.09378273763158536
2.8780479674661246	0.08796774419406142
2.879047984133069	0.020877356656978454
2.8800480008000138	0.11634447104046718
2.881048017466958	0.13012440740495795
2.8820480341339025	0.021068984828716886
2.883048050800847	0.05023131911529349
2.8840480674677913	0.09273680878173435
2.885048084134736	0.05873287396087933
2.88604810080168	0.03119480921044348
2.8870481174686247	0.11002184274585455
2.8880481341355693	0.06914263570029006
2.8890481508025134	0.1019524196412641
2.890048167469458	0.10115670236795693
2.8910481841364026	0.10493384608714731
2.892048200803347	0.1089887096433822
2.8930482174702914	0.12676305396727391
2.894048234137236	0.10748520411826593
2.89504825080418	0.11603929917181305
2.8960482674711248	0.036953703796054865
2.8970482841380694	0.10127780436196059
2.8980483008050135	0.1077523500979932
2.899048317471958	0.0649454884609274
2.9000483341389027	0.043037349062669435
2.901048350805847	0.06090808911224697
2.9020483674727915	0.05626625174154521
2.903048384139736	0.06443664856810863
2.9040484008066803	0.11674410367138109
2.905048417473625	0.07513601865844666
2.9060484341405695	0.06586760151054015
2.9070484508075136	0.05736892690838148
2.908048467474458	0.07072841098258477
2.909048484141403	0.06517903408174724
2.910048500808347	0.030291439078249396
2.9110485174752916	0.051493046579027806
2.9120485341422357	0.09333726331227998
2.9130485508091803	0.10164192786754753
2.914048567476125	0.08676934765051375
2.915048584143069	0.07181111072382622
2.9160486008100137	0.0229522760202889
2.9170486174769583	0.08292717670598927
2.9180486341439025	0.10261223699568814
2.919048650810847	0.11406476711861267
2.9200486674777917	0.03654741869292498
2.921048684144736	0.08371746473674622
2.9220487008116804	0.10732480157118374
2.923048717478625	0.077122562744995
2.924048734145569	0.113764092933627
2.925048750812514	0.09973009068580836
2.9260487674794584	0.05563168628243452
2.9270487841464026	0.1264712645724996
2.928048800813347	0.054164731138870444
2.9290488174802918	0.10253329629703807
2.930048834147236	0.0784501987829695
2.9310488508141805	0.05142325848996229
2.932048867481125	0.08347931161480664
2.9330488841480693	0.04158788480498976
2.934048900815014	0.08605059309085257
2.935048917481958	0.06700192763566085
2.9360489341489027	0.12314525895417794
2.9370489508158473	0.09320676892113047
2.9380489674827914	0.059632524541947965
2.939048984149736	0.08949770689331084
2.9400490008166806	0.06853276541946679
2.941049017483625	0.09316345715509788
2.9420490341505694	0.11265272961585218
2.943049050817514	0.0794034285126052
2.944049067484458	0.08935101479180024
2.9450490841514028	0.07165769036236587
2.9460491008183474	0.11962312915840444
2.9470491174852915	0.05636312250231715
2.948049134152236	0.04099126803268317
2.9490491508191807	0.07916578488330833
2.950049167486125	0.09842463324331947
2.9510491841530695	0.05348699996281185
2.952049200820014	0.052549492442399426
2.9530492174869583	0.11904247784322505
2.954049234153903	0.0801223177441572
2.9550492508208475	0.07461308001321518
2.9560492674877916	0.0738756633712385
2.9570492841547362	0.030018431226691643
2.958049300821681	0.12051668555492838
2.959049317488625	0.09198802502063477
2.9600493341555696	0.10003786131664699
2.9610493508225137	0.11455759110804994
2.9620493674894584	0.06837507559771581
2.963049384156403	0.07372005001550702
2.964049400823347	0.04942915281238447
2.9650494174902917	0.055440511516486664
2.9660494341572363	0.09832819845100763
2.9670494508241805	0.11720879906775156
2.968049467491125	0.055477837486386
2.9690494841580697	0.03191348554294096
2.970049500825014	0.07716186457203296
2.9710495174919584	0.13037585134298516
2.972049534158903	0.0852500768792705
2.973049550825847	0.126770471837821
2.974049567492792	0.08234312209449948
2.9750495841597364	0.11597621152186056
2.9760496008266806	0.06653454152803202
2.977049617493625	0.07227826241004474
2.97804963416057	0.0736350634629959
2.979049650827514	0.10359441641296806
2.9800496674944585	0.13215567853088872
2.981049684161403	0.04425603693653113
2.9820497008283473	0.11016349386008495
2.983049717495292	0.12448633383851017
2.9840497341622365	0.023341368761717596
2.9850497508291807	0.0526989641533156
2.9860497674961253	0.1327421656597301
2.9870497841630694	0.11431775723451659
2.988049800830014	0.048934605239291315
2.9890498174969586	0.08984030654652227
2.990049834163903	0.04863802155036404
2.9910498508308474	0.09570647600365342
2.992049867497792	0.09293441148184774
2.993049884164736	0.08738200464989708
2.9940499008316808	0.08552959229697295
2.9950499174986254	0.10893228946601875
2.9960499341655695	0.07563794092098036
2.997049950832514	0.10602773876350637
2.9980499674994587	0.07949822052963242
2.999049984166403	0.03422306735477093
3.0000500008333475	0.11773691756520396
3.001050017500292	0.04763811616662013
3.0020500341672363	0.09314203853459582
3.003050050834181	0.03312964435468886
3.0040500675011255	0.08973105727688255
3.0050500841680696	0.03227557323676571
3.0060501008350142	0.05205653817253206
3.007050117501959	0.11311163916823429
3.008050134168903	0.05345269122272707
3.0090501508358476	0.07289463404430846
3.0100501675027918	0.10289973999787778
3.0110501841697364	0.07229942101711016
