Time	Amplitude
0.0	0.05188873537890172
0.0010000166669444492	0.09182480822235634
0.0020000333338888983	0.08096930193349812
0.0030000500008333475	0.12543037055951933
0.004000066667777797	0.11613422121557201
0.005000083334722245	0.03722176004033951
0.006000100001666695	0.04203199025916117
0.0070001166686111446	0.08402997818211033
0.008000133335555593	0.1303571835174146
0.009000150002500042	0.09925802611756943
0.01000016666944449	0.05530148947079408
0.011000183336388941	0.07403301693354554
0.01200020000333339	0.07885500698796054
0.013000216670277839	0.09916612255258268
0.014000233337222289	0.08410679633390233
0.015000250004166738	0.06095925327824477
0.016000266671111187	0.09877199813624572
0.017000283338055637	0.045006085511764375
0.018000300005000084	0.09994299869664773
0.019000316671944534	0.09423976935397886
0.02000033333888898	0.036770017212122655
0.021000350005833432	0.08546471810691125
0.022000366672777882	0.0724616197111948
0.02300038333972233	0.10717138869746028
0.02400040000666678	0.09639709958097613
0.02500041667361123	0.05475305045729932
0.026000433340555677	0.07341112693536447
0.027000450007500128	0.0876197917408838
0.028000466674444578	0.05038236463431816
0.029000483341389025	0.0757028825768921
0.030000500008333476	0.04263122120603545
0.031000516675277923	0.04447092152047724
0.03200053334222237	0.07071318086321665
0.033000550009166824	0.11473837186512406
0.034000566676111274	0.06686545381130829
0.03500058334305572	0.01708821877212555
0.03600060001000017	0.057172425730551334
0.03700061667694462	0.06743658563415166
0.03800063334388907	0.07032436181012905
0.03900065001083352	0.12433836210964828
0.04000066667777796	0.04244630404853841
0.04100068334472241	0.06671247277762726
0.042000700011666864	0.09247817155235386
0.043000716678611314	0.05244255907303569
0.044000733345555765	0.049898448599929424
0.045000750012500215	0.06669280701247916
0.04600076667944466	0.06957678767070578
0.04700078334638911	0.11886098842247234
0.04800080001333356	0.12447305560402043
0.04900081668027801	0.10337104108719329
0.05000083334722246	0.05552372106452774
0.051000850014166904	0.12239193362277039
0.052000866681111355	0.0445266558387068
0.053000883348055805	0.07769988722500591
0.054000900015000255	0.09005433079121655
0.055000916681944706	0.07351889177339167
0.056000933348889156	0.036615470121188085
0.0570009500158336	0.01834142509586598
0.05800096668277805	0.10161431951191643
0.0590009833497225	0.03652921214427497
0.06000100001666695	0.04291008643189257
0.0610010166836114	0.10807955778205414
0.062001033350555845	0.037169490667854244
0.0630010500175003	0.03433716344540799
0.06400106668444475	0.03994150685597349
0.0650010833513892	0.05845390886530463
0.06600110001833365	0.10124383844871604
0.0670011166852781	0.09053574066976791
0.06800113335222255	0.07474955781678887
0.069001150019167	0.11210403928201128
0.07000116668611144	0.06361678410501105
0.07100118335305589	0.12990790462288726
0.07200120002000034	0.09623095536248955
0.07300121668694479	0.06557910931051854
0.07400123335388924	0.06298084003271347
0.07500125002083369	0.10386605555426165
0.07600126668777814	0.056205280842226576
0.07700128335472259	0.06760340901417206
0.07800130002166704	0.07725605354708696
0.07900131668861149	0.07675396132848121
0.08000133335555593	0.07544042970977252
0.08100135002250038	0.06266958413789361
0.08200136668944483	0.12508193047138128
0.08300138335638928	0.062143344462819855
0.08400140002333373	0.114303055338316
0.08500141669027818	0.11362722673801409
0.08600143335722263	0.06839434690776747
0.08700145002416708	0.11190893383797229
0.08800146669111153	0.11996595993094247
0.08900148335805598	0.0917903818572007
0.09000150002500043	0.05941337546596727
0.09100151669194487	0.12449929595646925
0.09200153335888932	0.04478949076636151
0.09300155002583377	0.05283587907364587
0.09400156669277822	0.11318976652539041
0.09500158335972267	0.11911959087095403
0.09600160002666712	0.045197039852807416
0.09700161669361157	0.0873592767772592
0.09800163336055602	0.06870837171588366
0.09900165002750047	0.05155760288705509
0.10000166669444492	0.03399995292265673
0.10100168336138937	0.11467219207221231
0.10200170002833381	0.055422051589279465
0.10300171669527826	0.11712652071954023
0.10400173336222271	0.07362072498176132
0.10500175002916716	0.07572382240646891
0.10600176669611161	0.06092822922895167
0.10700178336305606	0.11096350444380318
0.10800180003000051	0.08807197664060615
0.10900181669694496	0.06615514653843649
0.11000183336388941	0.04798898868951488
0.11100185003083386	0.07092194078888166
0.11200186669777831	0.07968366477990063
0.11300188336472275	0.10608522336562642
0.1140019000316672	0.10241846340874823
0.11500191669861165	0.06648939120141723
0.1160019333655561	0.07846890142506634
0.11700195003250055	0.11674031667229359
0.118001966699445	0.09718239821644993
0.11900198336638945	0.09689857557162276
0.1200020000333339	0.1022463898254482
0.12100201670027835	0.11968497007846329
0.1220020333672228	0.10135298094417691
0.12300205003416724	0.05897134815955874
0.12400206670111169	0.03461027456812957
0.12500208336805615	0.05691351426732772
0.1260021000350006	0.05150786220574288
0.12700211670194506	0.08636456662335432
0.1280021333688895	0.1065773819205838
0.12900215003583393	0.13491123375848169
0.1300021667027784	0.11255710039519966
0.13100218336972283	0.10869884799349269
0.1320022000366673	0.05505314811416885
0.13300221670361173	0.13610807616264295
0.1340022333705562	0.09481194402271109
0.13500225003750063	0.08791418970864176
0.1360022667044451	0.13664787956610255
0.13700228337138953	0.11394507399791119
0.138002300038334	0.05190927611300998
0.13900231670527843	0.05434361239636892
0.14000233337222287	0.10087938931253818
0.14100235003916733	0.11707150915793242
0.14200236670611177	0.09141387303685847
0.14300238337305624	0.123287157782054
0.14400240004000067	0.07360922248075148
0.14500241670694514	0.042275924232669404
0.14600243337388957	0.04448725761142631
0.14700245004083404	0.12242791135376949
0.14800246670777847	0.11484880963557931
0.14900248337472294	0.10997598288482749
0.15000250004166737	0.0807123927341926
0.1510025167086118	0.12648907705535897
0.15200253337555628	0.12257561847456563
0.1530025500425007	0.02404346193729092
0.15400256670944518	0.08776224268236699
0.1550025833763896	0.045719841534687215
0.15600260004333408	0.05716850853258351
0.15700261671027851	0.06732830054554843
0.15800263337722298	0.0914414649882863
0.15900265004416742	0.061631081149883145
0.16000266671111185	0.03871797268893424
0.16100268337805632	0.039902961614218
0.16200270004500075	0.09734029919614208
0.16300271671194522	0.03811135556741006
0.16400273337888965	0.11656047578724792
0.16500275004583412	0.1414097210886024
0.16600276671277855	0.09797654541018919
0.16700278337972302	0.0550474987828105
0.16800280004666746	0.056036456975245924
0.16900281671361192	0.10389266266475577
0.17000283338055636	0.12217134611802595
0.1710028500475008	0.09605355117667833
0.17200286671444526	0.09764482889657587
0.1730028833813897	0.03845221717906453
0.17400290004833416	0.04313680716564259
0.1750029167152786	0.1101148086456617
0.17600293338222306	0.06534127870631437
0.1770029500491675	0.04699287981517188
0.17800296671611196	0.09644727367258704
0.1790029833830564	0.11087199088999745
0.18000300005000086	0.022475379829870232
0.1810030167169453	0.08287358863095454
0.18200303338388973	0.05205954663112606
0.1830030500508342	0.05783900965790244
0.18400306671777863	0.11308795289837961
0.1850030833847231	0.04338918490081064
0.18600310005166754	0.11826230331880279
0.187003116718612	0.13060731433306802
0.18800313338555644	0.10225276013520379
0.1890031500525009	0.05489588929637733
0.19000316671944534	0.05204058529668385
0.1910031833863898	0.05149963553333682
0.19200320005333424	0.050543046989829324
0.19300321672027868	0.05940573868238684
0.19400323338722314	0.034324442620179085
0.19500325005416758	0.044677856711120734
0.19600326672111204	0.05755569804871965
0.19700328338805648	0.1090643116331449
0.19800330005500094	0.07319100773636208
0.19900331672194538	0.07088955975616656
0.20000333338888984	0.12191979250383139
0.20100335005583428	0.10077276360355561
0.20200336672277874	0.07785362425862773
0.20300338338972318	0.1247383356693812
0.20400340005666762	0.12599690538111036
0.20500341672361208	0.1472578172922827
0.20600343339055652	0.0346267684429471
0.20700345005750098	0.08669510130959748
0.20800346672444542	0.08986071194318604
0.20900348339138988	0.08036577625037915
0.21000350005833432	0.10333037792525708
0.21100351672527878	0.04870525717906383
0.21200353339222322	0.10132259980750115
0.21300355005916768	0.0452258157045765
0.21400356672611212	0.0846101249576216
0.21500358339305656	0.11928805674413305
0.21600360006000102	0.09565994959104136
0.21700361672694546	0.08347168330618215
0.21800363339388992	0.1160830584546927
0.21900365006083436	0.0916474353034276
0.22000366672777882	0.12788812980755174
0.22100368339472326	0.0579912456771771
0.22200370006166772	0.04871515783139245
0.22300371672861216	0.0866393104811784
0.22400373339555663	0.06187210748404009
0.22500375006250106	0.13523605434672129
0.2260037667294455	0.06841278247655005
0.22700378339638996	0.10472461649222015
0.2280038000633344	0.10595315601102846
0.22900381673027886	0.05126694561536085
0.2300038333972233	0.08970979367135141
0.23100385006416777	0.04793816706318503
0.2320038667311122	0.10386463379382477
0.23300388339805667	0.08371729614165456
0.2340039000650011	0.07967474025420065
0.23500391673194554	0.10979795923073256
0.23600393339889	0.11682141099923522
0.23700395006583444	0.04154745880313877
0.2380039667327789	0.11696814057534145
0.23900398339972334	0.06901971816075157
0.2400040000666678	0.0734432873343467
0.24100401673361224	0.030699454732591145
0.2420040334005567	0.12699102564444736
0.24300405006750114	0.1102959326850339
0.2440040667344456	0.09973091925822018
0.24500408340139004	0.024229259390113188
0.24600410006833448	0.07229054156736699
0.24700411673527894	0.08148702154016112
0.24800413340222338	0.09394506128514554
0.24900415006916785	0.05896962248724581
0.2500041667361123	0.09696881079346283
0.25100418340305675	0.10906132023129937
0.2520042000700012	0.07070376617569826
0.2530042167369456	0.08798671199346919
0.2540042334038901	0.10530898647567256
0.25500425007083455	0.07815133260349237
0.256004266737779	0.09314255028477422
0.2570042834047234	0.03041996635459787
0.25800430007166786	0.0438799978522502
0.25900431673861235	0.06254702609232422
0.2600043334055568	0.057152584771140984
0.2610043500725012	0.08298137512537102
0.26200436673944566	0.08992509910247862
0.26300438340639015	0.030838313046363915
0.2640044000733346	0.1330984068006905
0.265004416740279	0.06629441996090252
0.26600443340722346	0.09624868683224165
0.2670044500741679	0.08604773147036243
0.2680044667411124	0.06697831398446152
0.2690044834080568	0.09798402851437062
0.27000450007500126	0.08270917752577564
0.2710045167419457	0.030124264885021373
0.2720045334088902	0.09664985537621153
0.27300455007583463	0.10191577741767535
0.27400456674277907	0.0876352987676016
0.2750045834097235	0.06809443105375196
0.276004600076668	0.099693691598943
0.27700461674361243	0.06840939915832506
0.27800463341055687	0.050852564623085295
0.2790046500775013	0.08994949035705613
0.28000466674444574	0.1209417582544739
0.28100468341139023	0.041699385908248364
0.28200470007833467	0.11191518041733242
0.2830047167452791	0.05783645892930578
0.28400473341222354	0.12699524807746046
0.28500475007916803	0.03489583473268182
0.28600476674611247	0.06588950831329958
0.2870047834130569	0.08681180063248227
0.28800480008000134	0.13934390704797997
0.2890048167469458	0.1210876978881987
0.2900048334138903	0.053190568517827615
0.2910048500808347	0.08533337334793215
0.29200486674777915	0.13908262928953113
0.2930048834147236	0.11640943472748654
0.2940049000816681	0.09518040776945719
0.2950049167486125	0.03133798241888393
0.29600493341555695	0.05151283910776844
0.2970049500825014	0.052028966738983023
0.2980049667494459	0.047677254824496654
0.2990049834163903	0.06738347435483014
0.30000500008333475	0.08222907836704277
0.3010050167502792	0.12038491906473532
0.3020050334172236	0.12401209761653476
0.3030050500841681	0.08706730971410401
0.30400506675111255	0.13691320355927133
0.305005083418057	0.06474327336201524
0.3060051000850014	0.05525343248932217
0.3070051167519459	0.08957278178103208
0.30800513341889035	0.04948943358671179
0.3090051500858348	0.06355901405321389
0.3100051667527792	0.08788387953941167
0.31100518341972366	0.05935227427393303
0.31200520008666816	0.04742106449837934
0.3130052167536126	0.10334255850875537
0.31400523342055703	0.05421950824901072
0.31500525008750146	0.1009949066609182
0.31600526675444596	0.13126818261716874
0.3170052834213904	0.07931509928834139
0.31800530008833483	0.06799185745936982
0.31900531675527927	0.07199233458050373
0.3200053334222237	0.042447222532182416
0.3210053500891682	0.07629888079920102
0.32200536675611263	0.07883723901124412
0.32300538342305707	0.07208829844873396
0.3240054000900015	0.06796652463056217
0.325005416756946	0.11135823883038841
0.32600543342389043	0.10606159708163398
0.32700545009083487	0.07877565833067927
0.3280054667577793	0.126096149071311
0.3290054834247238	0.08770576345985169
0.33000550009166824	0.0659034558479679
0.3310055167586127	0.09332546447225407
0.3320055334255571	0.07498776548997449
0.33300555009250155	0.07321168668777925
0.33400556675944604	0.12073166827479298
0.3350055834263905	0.0671611874406665
0.3360056000933349	0.09798564421530374
0.33700561676027935	0.09140754788824969
0.33800563342722384	0.040449157042508024
0.3390056500941683	0.05153301602616291
0.3400056667611127	0.06749378531439343
0.34100568342805715	0.10022546876283797
0.3420057000950016	0.11078271070642881
0.3430057167619461	0.05605337242023511
0.3440057334288905	0.01542327015271307
0.34500575009583495	0.09943128845500619
0.3460057667627794	0.029337100103224413
0.3470057834297239	0.03486951288025318
0.3480058000966683	0.06091407835768278
0.34900581676361275	0.06801154368829555
0.3500058334305572	0.13793750047511902
0.3510058500975017	0.07916271946828497
0.3520058667644461	0.07714498225116248
0.35300588343139055	0.08599879376607938
0.354005900098335	0.045364223521826924
0.35500591676527943	0.026870644663549787
0.3560059334322239	0.10577903403715987
0.35700595009916836	0.05656406526652696
0.3580059667661128	0.074321132768868
0.35900598343305723	0.04785600338725813
0.3600060001000017	0.09088074799762899
0.36100601676694616	0.1394036447088594
0.3620060334338906	0.08343325033226089
0.36300605010083503	0.0804771594203546
0.36400606676777947	0.11069483187132487
0.36500608343472396	0.09837073807046612
0.3660061001016684	0.02991372221539091
0.36700611676861283	0.043398174788554525
0.36800613343555727	0.14004201980159392
0.36900615010250176	0.09031351747295492
0.3700061667694462	0.14325396280916786
0.37100618343639064	0.07473898630479149
0.37200620010333507	0.034949239646223894
0.37300621677027956	0.07937248147719196
0.374006233437224	0.04390904007244377
0.37500625010416844	0.08162131397097423
0.3760062667711129	0.12947821016575722
0.3770062834380573	0.0947937108702681
0.3780063001050018	0.07681242509222003
0.37900631677194624	0.12621882052869773
0.3800063334388907	0.09898793503747257
0.3810063501058351	0.11916798882573577
0.3820063667727796	0.028379110439139675
0.38300638343972404	0.05567183644774192
0.3840064001066685	0.07268913359677188
0.3850064167736129	0.072230998023181
0.38600643344055735	0.06057020404024544
0.38700645010750184	0.10459439422617098
0.3880064667744463	0.0911688570207458
0.3890064834413907	0.03466495182910899
0.39000650010833515	0.04344940658303705
0.39100651677527964	0.09876017745695224
0.3920065334422241	0.10789774789301035
0.3930065501091685	0.12279587767063042
0.39400656677611295	0.12778450325325505
0.3950065834430574	0.08211142194872652
0.3960066001100019	0.10365655020970929
0.3970066167769463	0.054733819315869174
0.39800663344389076	0.06295087622817393
0.3990066501108352	0.10489925570498007
0.4000066667777797	0.0439324854888333
0.4010066834447241	0.03878870192492919
0.40200670011166856	0.07746785196603612
0.403006716778613	0.08916310884318818
0.4040067334455575	0.034018756302490065
0.4050067501125019	0.13035896248310241
0.40600676677944636	0.11953733488562454
0.4070067834463908	0.038171178287168206
0.40800680011333523	0.09467025923036539
0.4090068167802797	0.07401324416222389
0.41000683344722416	0.06331350380896679
0.4110068501141686	0.07360755402116041
0.41200686678111303	0.05258643824455585
0.4130068834480575	0.11459032093323504
0.41400690011500196	0.1168150662313779
0.4150069167819464	0.11530611959598429
0.41600693344889084	0.0777867018058383
0.4170069501158353	0.048795105811429686
0.41800696678277977	0.06098434552117504
0.4190069834497242	0.07684224124023488
0.42000700011666864	0.126926870901116
0.4210070167836131	0.04757932731856092
0.42200703345055757	0.030634642386206053
0.423007050117502	0.08241365142632166
0.42400706678444644	0.04470330852305653
0.4250070834513909	0.0532137599686615
0.42600710011833537	0.061376094851572104
0.4270071167852798	0.09183487452563946
0.42800713345222424	0.10631644175754888
0.4290071501191687	0.13045949023693904
0.4300071667861131	0.027453264419969713
0.4310071834530576	0.04854402062509393
0.43200720012000204	0.09457376778794842
0.4330072167869465	0.07712060334645172
0.4340072334538909	0.0337070764619262
0.4350072501208354	0.08778806491451005
0.43600726678777985	0.062242746979093044
0.4370072834547243	0.07557284937377953
0.4380073001216687	0.09377941413556876
0.43900731678861316	0.0729054383890544
0.44000733345555765	0.09387288087250825
0.4410073501225021	0.04473351098971076
0.4420073667894465	0.09486094976443288
0.44300738345639096	0.06398462256791225
0.44400740012333545	0.10882834772510838
0.4450074167902799	0.036853341197289786
0.4460074334572243	0.09164582697005491
0.44700745012416876	0.07909636078518029
0.44800746679111325	0.08458749667607815
0.4490074834580577	0.13755850517350687
0.4500075001250021	0.07249410475020575
0.45100751679194656	0.12019644969225277
0.452007533458891	0.07960937987382288
0.4530075501258355	0.049326232042127244
0.4540075667927799	0.09372400162089964
0.45500758345972436	0.10036246825765015
0.4560076001266688	0.10292109168318753
0.4570076167936133	0.14083785455944955
0.45800763346055773	0.10445983879766792
0.45900765012750216	0.11253056458118504
0.4600076667944466	0.08390879616844832
0.46100768346139104	0.09473164738412886
0.46200770012833553	0.10397919806567185
0.46300771679527997	0.047909276077192274
0.4640077334622244	0.046925650741113274
0.46500775012916884	0.10580149993132287
0.46600776679611333	0.06251520978889008
0.46700778346305777	0.06231265455920345
0.4680078001300022	0.04783652290599759
0.46900781679694664	0.0858821249011275
0.4700078334638911	0.08018405570264109
0.47100785013083557	0.06388911713117801
0.47200786679778	0.03629214354191834
0.47300788346472444	0.10272988945803675
0.4740079001316689	0.1130181854955084
0.47500791679861337	0.06497678598150346
0.4760079334655578	0.0868701011882178
0.47700795013250225	0.12080761942494554
0.4780079667994467	0.07930368773959946
0.4790079834663912	0.06527950621987769
0.4800080001333356	0.08577114440351566
0.48100801680028005	0.09704358356506333
0.4820080334672245	0.08858322256939219
0.4830080501341689	0.06648006053007906
0.4840080668011134	0.117833167226649
0.48500808346805785	0.04970500014558476
0.4860081001350023	0.06111955990238657
0.4870081168019467	0.05501080283914415
0.4880081334688912	0.07060080258485175
0.48900815013583565	0.045021854722799015
0.4900081668027801	0.06566313499846488
0.4910081834697245	0.08455866966914635
0.49200820013666896	0.039943276993503384
0.49300821680361345	0.05139893113204482
0.4940082334705579	0.08078986070628294
0.4950082501375023	0.07245975700648101
0.49600826680444676	0.1060974038079479
0.49700828347139125	0.05255564743649396
0.4980083001383357	0.1108169163059325
0.4990083168052801	0.031782016538826806
0.5000083334722246	0.13518238177743555
0.501008350139169	0.08721943989867059
0.5020083668061135	0.029986990874919905
0.5030083834730579	0.08068895130470946
0.5040084001400024	0.1296092100912612
0.5050084168069469	0.09416952824711573
0.5060084334738912	0.04009840281204168
0.5070084501408357	0.11547572290677542
0.5080084668077802	0.07743038878889046
0.5090084834747246	0.06073216779048829
0.5100085001416691	0.09697684891955548
0.5110085168086135	0.05414899934790559
0.512008533475558	0.0902526228475693
0.5130085501425025	0.10146866229115492
0.5140085668094468	0.08515439045737368
0.5150085834763913	0.04751175161806985
0.5160086001433357	0.08447306209333057
0.5170086168102802	0.12403349095371922
0.5180086334772247	0.12661609367736307
0.5190086501441691	0.06638037083126008
0.5200086668111136	0.13587478681673226
0.5210086834780581	0.09728174278233707
0.5220087001450024	0.1196545515387953
0.5230087168119469	0.08231615403093501
0.5240087334788913	0.09326415951496533
0.5250087501458358	0.11589981602866983
0.5260087668127803	0.03621137121154053
0.5270087834797247	0.07497191858642369
0.5280088001466692	0.032078037972204355
0.5290088168136136	0.055651694419295385
0.530008833480558	0.10459323372034499
0.5310088501475025	0.03556936598431735
0.5320088668144469	0.11143453851129523
0.5330088834813914	0.07800104590748026
0.5340089001483358	0.12852355099808313
0.5350089168152803	0.07756301985679336
0.5360089334822248	0.06566752207413759
0.5370089501491692	0.05521642080576308
0.5380089668161137	0.08610730991110933
0.5390089834830581	0.12304923748240681
0.5400090001500025	0.045027077536051396
0.541009016816947	0.1068089269984637
0.5420090334838914	0.056932371111773454
0.5430090501508359	0.06782653750711289
0.5440090668177804	0.03373743566920938
0.5450090834847248	0.1340665223646525
0.5460091001516693	0.07594290845149242
0.5470091168186136	0.0403308204856789
0.5480091334855581	0.0987856453451479
0.5490091501525026	0.05513474527047758
0.550009166819447	0.10789111205036131
0.5510091834863915	0.07866448447410254
0.552009200153336	0.07426060270240264
0.5530092168202804	0.05512580543214772
0.5540092334872249	0.1315576665394661
0.5550092501541692	0.04304059715401343
0.5560092668211137	0.07795124982713172
0.5570092834880582	0.0634137345816681
0.5580093001550026	0.044573456410090306
0.5590093168219471	0.03824661327416884
0.5600093334888915	0.12227540391310224
0.561009350155836	0.09951631756761306
0.5620093668227805	0.09068372277585965
0.5630093834897248	0.08944487628723422
0.5640094001566693	0.09565935814758618
0.5650094168236138	0.027966338988980426
0.5660094334905582	0.11505245191671726
0.5670094501575027	0.042782702001241124
0.5680094668244471	0.1168744757250021
0.5690094834913916	0.09034027459018087
0.5700095001583361	0.08720655668569456
0.5710095168252804	0.11456186756377996
0.5720095334922249	0.04762006539896731
0.5730095501591693	0.031430079307882074
0.5740095668261138	0.10729256834115906
0.5750095834930583	0.049237175209099614
0.5760096001600027	0.12098488578850353
0.5770096168269472	0.030693996994563696
0.5780096334938916	0.11047292541305338
0.579009650160836	0.06066730032488153
0.5800096668277805	0.10438402951304916
0.5810096834947249	0.05760616856598645
0.5820097001616694	0.10303197526072194
0.5830097168286139	0.09239076255544261
0.5840097334955583	0.04055936883297262
0.5850097501625028	0.01912305372429393
0.5860097668294472	0.041396026302064716
0.5870097834963917	0.09929113336357316
0.5880098001633361	0.06534568059261688
0.5890098168302805	0.042527710161041586
0.590009833497225	0.10096917662152494
0.5910098501641694	0.07282026238805055
0.5920098668311139	0.08567504849977893
0.5930098834980584	0.07650395383154912
0.5940099001650028	0.10313518888263443
0.5950099168319473	0.05017310753416138
0.5960099334988918	0.07060985605853828
0.5970099501658361	0.05684215310647183
0.5980099668327806	0.11611457790172743
0.599009983499725	0.049931426986108814
0.6000100001666695	0.07774874830222975
0.601010016833614	0.10992637107850385
0.6020100335005584	0.08758815455226995
0.6030100501675029	0.12281949509566047
0.6040100668344472	0.0837346922742213
0.6050100835013917	0.12925063417393498
0.6060101001683362	0.12172628967701755
0.6070101168352806	0.09542041948887098
0.6080101335022251	0.09575353777346565
0.6090101501691695	0.11672224005363091
0.610010166836114	0.08030426783281726
0.6110101835030585	0.11539794794737085
0.6120102001700028	0.06388975820206773
0.6130102168369473	0.045598815591059244
0.6140102335038918	0.08719027307226619
0.6150102501708362	0.04574933195304818
0.6160102668377807	0.07459444629893873
0.6170102835047251	0.10867589473883946
0.6180103001716696	0.08220338891364239
0.6190103168386141	0.03565226647604866
0.6200103335055585	0.1112950239958371
0.621010350172503	0.11713243446631787
0.6220103668394473	0.09922603219938333
0.6230103835063918	0.07531157758728417
0.6240104001733363	0.05971393683450053
0.6250104168402807	0.07932378771216983
0.6260104335072252	0.10204188363155978
0.6270104501741697	0.1190142314726275
0.6280104668411141	0.06544961259341676
0.6290104835080585	0.12225509654603078
0.6300105001750029	0.10334009793141016
0.6310105168419474	0.05544578247373842
0.6320105335088919	0.024484185178464152
0.6330105501758363	0.09970611436836384
0.6340105668427808	0.08647043170641933
0.6350105835097252	0.032954670378096886
0.6360106001766697	0.10620443196859773
0.6370106168436142	0.08753089538526673
0.6380106335105585	0.03296698223627204
0.639010650177503	0.06356495913948151
0.6400106668444474	0.08094273264439998
0.6410106835113919	0.06867897953581613
0.6420107001783364	0.06008445677981536
0.6430107168452808	0.11250248476007822
0.6440107335122253	0.09786622916793684
0.6450107501791698	0.10923618621749027
0.6460107668461141	0.10963146370160527
0.6470107835130586	0.10941973223211503
0.648010800180003	0.06224213668135245
0.6490108168469475	0.08047624725296637
0.650010833513892	0.11656514349120974
0.6510108501808364	0.05773530295286027
0.6520108668477809	0.05800440895677161
0.6530108835147252	0.08214028414465181
0.6540109001816697	0.07755545065965022
0.6550109168486142	0.08853387083692149
0.6560109335155586	0.050802960882475975
0.6570109501825031	0.06904225044928189
0.6580109668494476	0.0517302897133683
0.659010983516392	0.11583690673134094
0.6600110001833365	0.11732818337450888
0.6610110168502809	0.06390400311957266
0.6620110335172253	0.11579756808705918
0.6630110501841698	0.05366724292793757
0.6640110668511142	0.040692402862811575
0.6650110835180587	0.05622476308405765
0.6660111001850031	0.11399997333153626
0.6670111168519476	0.02943738378353672
0.6680111335188921	0.1340624267236201
0.6690111501858365	0.12384801840951293
0.670011166852781	0.10482921282162719
0.6710111835197254	0.07682721600535294
0.6720112001866698	0.12673919137731124
0.6730112168536143	0.11251615991121992
0.6740112335205587	0.11292933139603685
0.6750112501875032	0.03674251661781603
0.6760112668544477	0.09029535636108094
0.6770112835213921	0.09269944855858368
0.6780113001883366	0.12519010561292082
0.6790113168552809	0.0661132280057533
0.6800113335222254	0.11383163155225746
0.6810113501891699	0.11096557378447854
0.6820113668561143	0.04033369806158006
0.6830113835230588	0.0435341447501011
0.6840114001900032	0.11427547024313899
0.6850114168569477	0.08073929419129942
0.6860114335238922	0.09021418735694685
0.6870114501908365	0.05650382129626478
0.688011466857781	0.11202741786204773
0.6890114835247255	0.10214255806317082
0.6900115001916699	0.12092034783798399
0.6910115168586144	0.07020614447461303
0.6920115335255588	0.10066777833774555
0.6930115501925033	0.03907164429673288
0.6940115668594478	0.10607862365984431
0.6950115835263921	0.10526662721147347
0.6960116001933366	0.1160963326137225
0.697011616860281	0.06594623337943188
0.6980116335272255	0.06947113630305018
0.69901165019417	0.049656643975194446
0.7000116668611144	0.07153442701300805
0.7010116835280589	0.045832900216734994
0.7020117001950034	0.11107178248409207
0.7030117168619477	0.06308922717883599
0.7040117335288922	0.1223033033126892
0.7050117501958366	0.08455376879086479
0.7060117668627811	0.052945970700598775
0.7070117835297256	0.09334358998294792
0.70801180019667	0.09405647965729089
0.7090118168636145	0.0824448476410635
0.7100118335305589	0.048851391494045604
0.7110118501975033	0.07737713055030795
0.7120118668644478	0.13924060874702496
0.7130118835313922	0.0557581914749557
0.7140119001983367	0.047547744974108554
0.7150119168652811	0.06414159333454167
0.7160119335322256	0.05772705795225714
0.7170119501991701	0.07484245110520792
0.7180119668661145	0.0743773031242134
0.719011983533059	0.12133838885896855
0.7200120002000034	0.12252386429596326
0.7210120168669478	0.06751932245499667
0.7220120335338923	0.13560128920005085
0.7230120502008367	0.09909577449365983
0.7240120668677812	0.06850315368031526
0.7250120835347257	0.06353824656018917
0.7260121002016701	0.06089611512552562
0.7270121168686146	0.10811223890618726
0.7280121335355589	0.11627520655062755
0.7290121502025034	0.07846060099933488
0.7300121668694479	0.14530378796073887
0.7310121835363923	0.06891679239770666
0.7320122002033368	0.08581595383061419
0.7330122168702813	0.09329275712745891
0.7340122335372257	0.03561800968609307
0.7350122502041702	0.10198691814632861
0.7360122668711145	0.058354522014163884
0.737012283538059	0.03348686647208974
0.7380123002050035	0.06495845430354183
0.7390123168719479	0.04036836511313469
0.7400123335388924	0.1178876568332167
0.7410123502058368	0.12986507418384408
0.7420123668727813	0.02778846367730666
0.7430123835397258	0.05173863188579606
0.7440124002066701	0.06174306838842229
0.7450124168736146	0.12172928495194804
0.7460124335405591	0.07918604440417581
0.7470124502075035	0.12657467297673608
0.748012466874448	0.0973297603768467
0.7490124835413924	0.10452799401955971
0.7500125002083369	0.09393277958309824
0.7510125168752814	0.10779680959887103
0.7520125335422257	0.14305435803699318
0.7530125502091702	0.10696183047152874
0.7540125668761146	0.03866691985542201
0.7550125835430591	0.08871094717969623
0.7560126002100036	0.11627205242435122
0.757012616876948	0.03724809969539626
0.7580126335438925	0.09232753420713255
0.7590126502108369	0.06020830641215406
0.7600126668777814	0.038191156550977434
0.7610126835447258	0.0440878188912279
0.7620127002116702	0.06627458072349271
0.7630127168786147	0.13952572728263074
0.7640127335455592	0.1096169306903015
0.7650127502125036	0.05760917593364338
0.7660127668794481	0.12084830946126258
0.7670127835463925	0.050752534287020104
0.768012800213337	0.028713926599161565
0.7690128168802814	0.055202943723257326
0.7700128335472258	0.040639845588107
0.7710128502141703	0.027001752239445356
0.7720128668811147	0.08544052104809993
0.7730128835480592	0.04758382209453714
0.7740129002150037	0.06001958551272163
0.7750129168819481	0.064512157084584
0.7760129335488926	0.08044603648927785
0.777012950215837	0.05003121653614341
0.7780129668827814	0.07633621060344292
0.7790129835497259	0.10275178139040164
0.7800130002166703	0.0764555501134194
0.7810130168836148	0.06272211256526111
0.7820130335505593	0.09717712610023338
0.7830130502175037	0.07872586008925961
0.7840130668844482	0.13030642748482532
0.7850130835513925	0.0775476456689205
0.786013100218337	0.038764639212394425
0.7870131168852815	0.08929246301254978
0.7880131335522259	0.01810703481582826
0.7890131502191704	0.1107387205268937
0.7900131668861148	0.07731098246069447
0.7910131835530593	0.0733870912967941
0.7920132002200038	0.06612935680447625
0.7930132168869481	0.05661959863301144
0.7940132335538926	0.10269227337211317
0.7950132502208371	0.08308562928355989
0.7960132668877815	0.07887966035048335
0.797013283554726	0.1337986204201563
0.7980133002216704	0.08587046582662797
0.7990133168886149	0.05959923991469565
0.8000133335555594	0.12491496396003446
0.8010133502225038	0.05037790951592449
0.8020133668894482	0.08435074448916269
0.8030133835563926	0.06797541929860482
0.8040134002233371	0.10003900804163722
0.8050134168902816	0.059632701676107194
0.806013433557226	0.047566800382900405
0.8070134502241705	0.07712645194745027
0.808013466891115	0.10650184832029896
0.8090134835580594	0.10641109342413337
0.8100135002250038	0.05513024856803475
0.8110135168919482	0.027110038073668942
0.8120135335588927	0.007254646226527082
0.8130135502258372	0.06639484413530117
0.8140135668927816	0.10202318845447711
0.8150135835597261	0.09869988747665881
0.8160136002266705	0.07376066810389334
0.817013616893615	0.057630585896989626
0.8180136335605594	0.11690501765435063
0.8190136502275038	0.05451600263110063
0.8200136668944483	0.09654269004986121
0.8210136835613928	0.059848726653051056
0.8220137002283372	0.09005476009372844
0.8230137168952817	0.12126855416240614
0.8240137335622261	0.12711844961472496
0.8250137502291706	0.0686029874255202
0.826013766896115	0.07711444648533794
0.8270137835630594	0.11253400020768675
0.8280138002300039	0.060115103859038316
0.8290138168969483	0.10899022702563524
0.8300138335638928	0.07842293181645058
0.8310138502308373	0.10804635007118761
0.8320138668977817	0.09888217474907193
0.8330138835647262	0.04402497108847102
0.8340139002316705	0.10300486647867489
0.835013916898615	0.1003401125632523
0.8360139335655595	0.0957690716994661
0.8370139502325039	0.093891578660385
0.8380139668994484	0.1206914206665722
0.8390139835663929	0.054636628760318245
0.8400140002333373	0.0873734661596951
0.8410140169002818	0.04570509170695029
0.8420140335672262	0.1332495948172311
0.8430140502341706	0.059287031660893746
0.8440140669011151	0.025909911533921505
0.8450140835680595	0.06786225028171156
0.846014100235004	0.08817659436123852
0.8470141169019484	0.05125278188248841
0.8480141335688929	0.06352253191040826
0.8490141502358374	0.08361035515410305
0.8500141669027818	0.03557400768419044
0.8510141835697262	0.09277463790578411
0.8520142002366707	0.10423686354684823
0.8530142169036151	0.0926339788749065
0.8540142335705596	0.05415702536946823
0.855014250237504	0.0810109787282223
0.8560142669044485	0.11298630844375515
0.857014283571393	0.05545762443915066
0.8580143002383374	0.10694859720966876
0.8590143169052818	0.12338299902828986
0.8600143335722262	0.1030656122824762
0.8610143502391707	0.06519475573630558
0.8620143669061152	0.06847940061521288
0.8630143835730596	0.06889519059973179
0.8640144002400041	0.11781895713407901
0.8650144169069485	0.08599577335226227
0.866014433573893	0.10931138928117358
0.8670144502408375	0.11898584314221199
0.8680144669077818	0.06559017233379344
0.8690144835747263	0.10748378285767668
0.8700145002416708	0.031523483232265344
0.8710145169086152	0.028182587551823485
0.8720145335755597	0.09842171590141317
0.8730145502425041	0.017050499014539245
0.8740145669094486	0.04827316410832659
0.8750145835763931	0.07899942056261833
0.8760146002433374	0.1034386758772124
0.8770146169102819	0.11732083657391162
0.8780146335772263	0.07900881128903466
0.8790146502441708	0.06431455150011751
0.8800146669111153	0.07082140865239651
0.8810146835780597	0.051719022896862504
0.8820147002450042	0.03002893026489917
0.8830147169119487	0.09447421221979213
0.884014733578893	0.09793012010885008
0.8850147502458375	0.06436727093719234
0.8860147669127819	0.045359472458046855
0.8870147835797264	0.1344237359329896
0.8880148002466709	0.04927098187268118
0.8890148169136153	0.06905419642605043
0.8900148335805598	0.03811416101194269
0.8910148502475042	0.054826215546274315
0.8920148669144486	0.037840916734222116
0.8930148835813931	0.12960389481491746
0.8940149002483375	0.03774559766723798
0.895014916915282	0.13143499813077064
0.8960149335822265	0.10168918504075626
0.8970149502491709	0.11826529037040398
0.8980149669161154	0.04516308250438238
0.8990149835830598	0.047532334428282946
0.9000150002500042	0.12716928995731058
0.9010150169169487	0.07852099306908111
0.9020150335838931	0.09472172850539314
0.9030150502508376	0.0411710595712036
0.904015066917782	0.07931813568384569
0.9050150835847265	0.09033441374391962
0.906015100251671	0.11081791001798207
0.9070151169186154	0.11217793057636985
0.9080151335855599	0.0877536346560565
0.9090151502525042	0.116193826937283
0.9100151669194487	0.09762840744757781
0.9110151835863932	0.12772454950523052
0.9120152002533376	0.09015944466944503
0.9130152169202821	0.0560746989200766
0.9140152335872266	0.04558277291700393
0.915015250254171	0.04224401038372358
0.9160152669211155	0.06750581175757675
0.9170152835880598	0.06659557863939798
0.9180153002550043	0.10341963018491676
0.9190153169219488	0.055618528170719855
0.9200153335888932	0.07770009037116032
0.9210153502558377	0.08930684266888465
0.9220153669227821	0.04181625023157923
0.9230153835897266	0.05353760350915589
0.9240154002566711	0.03950491326405878
0.9250154169236154	0.07722871584802496
0.9260154335905599	0.03760433304018554
0.9270154502575044	0.13043465064106688
0.9280154669244488	0.04969419281104563
0.9290154835913933	0.15519786294700322
0.9300155002583377	0.04218012635942632
0.9310155169252822	0.10504503116713826
0.9320155335922267	0.10030079130415627
0.933015550259171	0.1228998990305284
0.9340155669261155	0.050966460576377534
0.9350155835930599	0.12357212492267516
0.9360156002600044	0.020927108104162852
0.9370156169269489	0.09754393096410835
0.9380156335938933	0.09425566847671851
0.9390156502608378	0.09036927402499906
0.9400156669277822	0.06805798599293601
0.9410156835947266	0.10072882636593507
0.9420157002616711	0.05743444270003112
0.9430157169286155	0.11785692253866611
0.94401573359556	0.04476042146722496
0.9450157502625045	0.0974930606794172
0.9460157669294489	0.10563395581350628
0.9470157835963934	0.10377652167602437
0.9480158002633378	0.05221691566896972
0.9490158169302823	0.09809587982937341
0.9500158335972267	0.13279479132742178
0.9510158502641711	0.11168463467300314
0.9520158669311156	0.038800865096223186
0.95301588359806	0.0463404103849476
0.9540159002650045	0.04845330461671614
0.955015916931949	0.030835583381872592
0.9560159335988934	0.10607684537694209
0.9570159502658379	0.07951179544260245
0.9580159669327823	0.12637954448856742
0.9590159835997267	0.08080453762864141
0.9600160002666712	0.07874977172904724
0.9610160169336156	0.11444622952700516
0.9620160336005601	0.07758477120596743
0.9630160502675046	0.06806720470271052
0.964016066934449	0.09847076409201068
0.9650160836013935	0.13208567528879014
0.9660161002683378	0.051116464619592114
0.9670161169352823	0.09010597036660235
0.9680161336022268	0.06027971600213422
0.9690161502691712	0.10010380453612107
0.9700161669361157	0.08060219091890249
0.9710161836030601	0.11521315809641991
0.9720162002700046	0.10868222080655383
0.9730162169369491	0.07013989148944498
0.9740162336038934	0.09473033515362331
0.9750162502708379	0.037787648198737187
0.9760162669377824	0.09844134097565818
0.9770162836047268	0.11689726913249462
0.9780163002716713	0.0864451415125839
0.9790163169386157	0.13253352980024805
0.9800163336055602	0.06835683312356781
0.9810163502725047	0.035528303196096594
0.982016366939449	0.05520663353429441
0.9830163836063935	0.101468203295647
0.9840164002733379	0.09633581920781316
0.9850164169402824	0.11922820742258126
0.9860164336072269	0.04787693474936172
0.9870164502741713	0.08400279448234049
0.9880164669411158	0.04063052269678063
0.9890164836080603	0.09307383860652452
0.9900165002750047	0.05215390033164529
0.9910165169419491	0.053749850245538654
0.9920165336088935	0.04765870085470967
0.993016550275838	0.10297858958790647
0.9940165669427825	0.07336598208129573
0.9950165836097269	0.12461390254977198
0.9960166002766714	0.04506438807259627
0.9970166169436158	0.06681849706900937
0.9980166336105603	0.055934717534425304
0.9990166502775047	0.03553822568704043
1.0000166669444492	0.04332042852505586
1.0010166836113936	0.07242500758142059
1.002016700278338	0.061735228490511565
1.0030167169452826	0.04072965374848395
1.004016733612227	0.04361804973718503
1.0050167502791714	0.09861278766227713
1.0060167669461157	0.10968684747027801
1.0070167836130604	0.10527786219449727
1.0080168002800047	0.12304620597504529
1.0090168169469491	0.10204316376234299
1.0100168336138937	0.07121401086018433
1.011016850280838	0.13884599994721217
1.0120168669477825	0.11589493211269468
1.013016883614727	0.06551500947904441
1.0140169002816715	0.057847597098004064
1.0150169169486158	0.1182415155025813
1.0160169336155604	0.08792801839684505
1.0170169502825048	0.04223580953247182
1.0180169669494492	0.05853308557387933
1.0190169836163936	0.05616593335026143
1.0200170002833382	0.06265420916136606
1.0210170169502826	0.03753529975923727
1.022017033617227	0.11019884331226647
1.0230170502841716	0.0693952915715448
1.024017066951116	0.1054075837571971
1.0250170836180603	0.1206557001506816
1.026017100285005	0.11546422442779256
1.0270171169519493	0.06594432364854
1.0280171336188937	0.0482102005573618
1.0290171502858383	0.06494610743316179
1.0300171669527827	0.12341079570373693
1.031017183619727	0.07455540783402718
1.0320172002866714	0.035598685445735676
1.033017216953616	0.10288717036003805
1.0340172336205604	0.08122638831043295
1.0350172502875048	0.04641793961158665
1.0360172669544494	0.03588011243513238
1.0370172836213938	0.07741023063945292
1.0380173002883382	0.14036582657332466
1.0390173169552828	0.08453786904809514
1.0400173336222271	0.08682801093370769
1.0410173502891715	0.032887504632582575
1.0420173669561161	0.02528109247494538
1.0430173836230605	0.11819411161083175
1.044017400290005	0.025771511791807963
1.0450174169569493	0.12441503286045164
1.0460174336238939	0.05386058794901329
1.0470174502908383	0.07856271656903532
1.0480174669577826	0.0437531984708447
1.0490174836247272	0.0715546370146499
1.0500175002916716	0.06117051951294699
1.051017516958616	0.07331317817250274
1.0520175336255606	0.0348116083133207
1.053017550292505	0.12050544048152684
1.0540175669594494	0.051879209218211236
1.055017583626394	0.05906575888131344
1.0560176002933384	0.11912349925426798
1.0570176169602827	0.09895912515927142
1.0580176336272271	0.08261000318201207
1.0590176502941717	0.12103887400889207
1.060017666961116	0.03890939480051434
1.0610176836280605	0.05101765617252457
1.062017700295005	0.09439257130873165
1.0630177169619495	0.09711898231260385
1.0640177336288938	0.046348021711385835
1.0650177502958385	0.08578269906024881
1.0660177669627828	0.08150231557856291
1.0670177836297272	0.08547345974430341
1.0680178002966716	0.12163769655775074
1.0690178169636162	0.08926113787753594
1.0700178336305606	0.0508863705396574
1.071017850297505	0.03968628679889281
1.0720178669644496	0.06036466172721985
1.073017883631394	0.05764010624719751
1.0740179002983383	0.06055178045414224
1.075017916965283	0.1175210418631085
1.0760179336322273	0.02213672291710328
1.0770179502991717	0.08906147541419683
1.0780179669661163	0.04311630675179792
1.0790179836330607	0.11692626319372376
1.080018000300005	0.09992963602988433
1.0810180169669494	0.0372310069417997
1.082018033633894	0.08027508210221561
1.0830180503008384	0.07496664463812573
1.0840180669677828	0.07284979600254674
1.0850180836347274	0.08704380939982857
1.0860181003016718	0.08076593674335675
1.0870181169686162	0.07950474108429563
1.0880181336355608	0.13636655310259405
1.0890181503025052	0.11211624097409519
1.0900181669694495	0.02364598622891008
1.0910181836363941	0.1277282957120367
1.0920182003033385	0.0662591526234604
1.093018216970283	0.1107717220496458
1.0940182336372273	0.03295726635141116
1.0950182503041719	0.09118470886649149
1.0960182669711163	0.038057817464183186
1.0970182836380606	0.050785104211586184
1.0980183003050052	0.08939997228047064
1.0990183169719496	0.09120351748996919
1.100018333638894	0.09277855652536315
1.1010183503058386	0.019365954962818177
1.102018366972783	0.09651202196060682
1.1030183836397274	0.04128234863849579
1.104018400306672	0.02972790812143949
1.1050184169736164	0.05315607155280757
1.1060184336405607	0.08652107285238102
1.1070184503075051	0.09622006782127174
1.1080184669744497	0.07436920619625959
1.109018483641394	0.050477733953069454
1.1100185003083385	0.07785255949348577
1.111018516975283	0.03973402092440559
1.1120185336422275	0.059549259079921806
1.1130185503091719	0.11703214266450152
1.1140185669761165	0.07010501760745202
1.1150185836430608	0.0753602984082489
1.1160186003100052	0.10451496018815402
1.1170186169769498	0.08678337449561069
1.1180186336438942	0.08173435892358756
1.1190186503108386	0.1067668147961242
1.120018666977783	0.11890454690302271
1.1210186836447276	0.10175857230474761
1.122018700311672	0.10444144117392232
1.1230187169786163	0.05526353319536225
1.124018733645561	0.1097042574842136
1.1250187503125053	0.025901972939573404
1.1260187669794497	0.0951250853409244
1.1270187836463943	0.09113925664579094
1.1280188003133387	0.12252263984655563
1.129018816980283	0.05998952880693493
1.1300188336472277	0.06344568759840118
1.131018850314172	0.07235309738394542
1.1320188669811164	0.08982472934260792
1.1330188836480608	0.08413549342201772
1.1340189003150054	0.10119492289299267
1.1350189169819498	0.06054721511910874
1.1360189336488942	0.07251216792118848
1.1370189503158388	0.07819140779386106
1.1380189669827832	0.08946412717725614
1.1390189836497275	0.12399535765599368
1.1400190003166721	0.05361217734802283
1.1410190169836165	0.06787839750712642
1.142019033650561	0.0719777280341941
1.1430190503175053	0.09788244944200597
1.1440190669844499	0.042787662131243936
1.1450190836513943	0.11124928610991992
1.1460191003183386	0.08357666848537869
1.1470191169852832	0.037623371464085086
1.1480191336522276	0.06795417305946984
1.149019150319172	0.11339449969505773
1.1500191669861166	0.051295397688849095
1.151019183653061	0.07557562566467284
1.1520192003200054	0.0357376554726523
1.15301921698695	0.12216943725439004
1.1540192336538944	0.10213183297843667
1.1550192503208387	0.11101174982493625
1.1560192669877831	0.06295572984107994
1.1570192836547277	0.12230346465278764
1.158019300321672	0.10113355157092807
1.1590193169886165	0.1097050229542482
1.160019333655561	0.06759478805800445
1.1610193503225055	0.03354020506011064
1.1620193669894499	0.09757146724442527
1.1630193836563945	0.1140781214091071
1.1640194003233388	0.059691646637614795
1.1650194169902832	0.1340002817092721
1.1660194336572278	0.0756735681621479
1.1670194503241722	0.04361598604928728
1.1680194669911166	0.061443949158323796
1.169019483658061	0.08840109209252003
1.1700195003250056	0.12936955898202546
1.17101951699195	0.09980874911808757
1.1720195336588943	0.10465882128652079
1.173019550325839	0.044917274485328916
1.1740195669927833	0.10594775494406955
1.1750195836597277	0.1065982335778938
1.1760196003266723	0.09055839604863196
1.1770196169936167	0.033458950795078275
1.178019633660561	0.05771316069199884
1.1790196503275057	0.084025877697233
1.18001966699445	0.09054341216009054
1.1810196836613944	0.11704250814979861
1.1820197003283388	0.11624093568758817
1.1830197169952834	0.06418774663077212
1.1840197336622278	0.1156647617559315
1.1850197503291722	0.09408214759473202
1.1860197669961168	0.13266784663990844
1.1870197836630612	0.11613014220078703
1.1880198003300055	0.06664304689735828
1.1890198169969501	0.07526427941164776
1.1900198336638945	0.1341736962176239
1.191019850330839	0.05009105692210486
1.1920198669977835	0.09435879795844522
1.1930198836647279	0.03012233485549119
1.1940199003316723	0.14100370060962653
1.1950199169986166	0.03154476536065954
1.1960199336655613	0.04145512266025192
1.1970199503325056	0.12639485240714016
1.19801996699945	0.045500314345309656
1.1990199836663946	0.07873004680564621
1.200020000333339	0.09671874778379883
1.2010200170002834	0.10490328558583423
1.202020033667228	0.13055542590765692
1.2030200503341724	0.10378693754892156
1.2040200670011167	0.017333137519019815
1.2050200836680613	0.1252518082570231
1.2060201003350057	0.06725804536669555
1.20702011700195	0.06743214043681142
1.2080201336688945	0.03842900467014439
1.209020150335839	0.056482046929864096
1.2100201670027835	0.019842140883605044
1.2110201836697279	0.07562220262154887
1.2120202003366725	0.038837486342895286
1.2130202170036168	0.12374872099078009
1.2140202336705612	0.08590694259854328
1.2150202503375058	0.05483247153437148
1.2160202670044502	0.07540857779930589
1.2170202836713946	0.0933175458484609
1.218020300338339	0.07791319637983135
1.2190203170052836	0.06123637498487124
1.220020333672228	0.10294997300687936
1.2210203503391723	0.12431688375381188
1.222020367006117	0.12237725577043873
1.2230203836730613	0.10110056022193076
1.2240204003400057	0.08006517349269135
1.2250204170069503	0.08414200290936993
1.2260204336738947	0.09166309152429336
1.227020450340839	0.08432348184776914
1.2280204670077837	0.062024336074780466
1.229020483674728	0.12265005086643267
1.2300205003416724	0.03843887845915531
1.2310205170086168	0.12294458772825263
1.2320205336755614	0.1292868920210792
1.2330205503425058	0.1080763258749255
1.2340205670094502	0.07059568415725878
1.2350205836763948	0.11009724402218829
1.2360206003433392	0.08465371566151125
1.2370206170102835	0.11458536692918649
1.2380206336772281	0.040372719179140766
1.2390206503441725	0.07726342521468252
1.240020667011117	0.06778062476154173
1.2410206836780615	0.1317193761728039
1.242020700345006	0.1231980194688412
1.2430207170119503	0.10305131088122152
1.2440207336788947	0.06331348022372603
1.2450207503458393	0.0909734206042118
1.2460207670127836	0.08812223191251242
1.247020783679728	0.053336303199578744
1.2480208003466726	0.0632355659080323
1.249020817013617	0.046816762248896936
1.2500208336805614	0.08560427056950728
1.251020850347506	0.048682258288325966
1.2520208670144504	0.12786053778082487
1.2530208836813947	0.06849450057820015
1.2540209003483394	0.05441850178989447
1.2550209170152837	0.025399530076039012
1.2560209336822281	0.03445758273164044
1.2570209503491725	0.10145897256893781
1.258020967016117	0.09967467084806253
1.2590209836830615	0.0759583146169255
1.2600210003500059	0.08448657927040325
1.2610210170169505	0.07600002608284065
1.2620210336838948	0.04981587853801019
1.2630210503508392	0.08134950034620148
1.2640210670177838	0.04493076791768844
1.2650210836847282	0.12404544887204318
1.2660211003516726	0.04176612924964924
1.2670211170186172	0.09590732190031379
1.2680211336855616	0.09651009952125135
1.269021150352506	0.03805349940570354
1.2700211670194503	0.10278826853947459
1.271021183686395	0.04487007918900374
1.2720212003533393	0.05757089052300985
1.2730212170202837	0.11061551924371311
1.2740212336872283	0.039199459888849764
1.2750212503541727	0.1035189532553554
1.276021267021117	0.0810822066352455
1.2770212836880617	0.08129393295343121
1.278021300355006	0.09957063914581017
1.2790213170219504	0.030618068208923144
1.2800213336888948	0.12644860913934922
1.2810213503558394	0.05765643368213071
1.2820213670227838	0.11964991533781343
1.2830213836897282	0.06650179763957705
1.2840214003566728	0.056620217626403097
1.2850214170236172	0.13354409064471073
1.2860214336905615	0.07302923907047842
1.2870214503575061	0.060038980479703706
1.2880214670244505	0.0628012850995743
1.289021483691395	0.05867595944288872
1.2900215003583395	0.13104965063879637
1.291021517025284	0.07022481927657612
1.2920215336922283	0.06559429340308506
1.2930215503591727	0.09260931864565358
1.2940215670261173	0.11377939720292973
1.2950215836930616	0.03387412489590449
1.296021600360006	0.04279295126607765
1.2970216170269506	0.09292000531258733
1.298021633693895	0.11406676181773444
1.2990216503608394	0.07870716317975035
1.300021667027784	0.06764946488217817
1.3010216836947284	0.06789893192301041
1.3020217003616728	0.08469876406617305
1.3030217170286174	0.0739730140261407
1.3040217336955617	0.07934564197976755
1.3050217503625061	0.08113548253994754
1.3060217670294505	0.043542036470691284
1.307021783696395	0.07722720529552816
1.3080218003633395	0.08461080696456767
1.3090218170302839	0.05673799086383064
1.3100218336972285	0.0629817062026281
1.3110218503641728	0.11425334741382072
1.3120218670311172	0.10273798501264027
1.3130218836980618	0.06929292935735065
1.3140219003650062	0.11700079073452313
1.3150219170319506	0.05527065637456667
1.3160219336988952	0.034124889407423045
1.3170219503658396	0.04374410614785775
1.318021967032784	0.06358325624124914
1.3190219836997283	0.06426474764433199
1.320022000366673	0.061032254695466984
1.3210220170336173	0.10920854436761751
1.3220220337005617	0.045030226376909774
1.3230220503675063	0.07409797105888465
1.3240220670344507	0.0349425441779322
1.325022083701395	0.10443413134889205
1.3260221003683397	0.10826956766079025
1.327022117035284	0.051938523969870504
1.3280221337022284	0.032948445297497374
1.329022150369173	0.04402296813794623
1.3300221670361174	0.057721756000235394
1.3310221837030618	0.08273933971239832
1.3320222003700062	0.08423863257241652
1.3330222170369508	0.05567127346229863
1.3340222337038952	0.05623078493754587
1.3350222503708395	0.10879774851854207
1.3360222670377842	0.017459651789751916
1.3370222837047285	0.060770113037009896
1.338022300371673	0.11781785106822712
1.3390223170386175	0.11235028224374735
1.340022333705562	0.07377297060019174
1.3410223503725063	0.09305502494299668
1.3420223670394509	0.08374977240193467
1.3430223837063953	0.10835312801802029
1.3440224003733396	0.11096173143232627
1.345022417040284	0.07809863577035968
1.3460224337072286	0.10170519566478847
1.347022450374173	0.033911127427501006
1.3480224670411174	0.08264679557667227
1.349022483708062	0.10066579592314012
1.3500225003750064	0.1245288501867449
1.3510225170419508	0.09898873345135141
1.3520225337088954	0.08994734264012945
1.3530225503758397	0.11601352473340851
1.3540225670427841	0.02216156873159294
1.3550225837097285	0.10191338521814415
1.356022600376673	0.1133544399159016
1.3570226170436175	0.1257995803156567
1.3580226337105619	0.0821891101512372
1.3590226503775065	0.08925333170230836
1.3600226670444509	0.10567692661355126
1.3610226837113952	0.08610255617128088
1.3620227003783398	0.05079779383405652
1.3630227170452842	0.12098389453417772
1.3640227337122286	0.03966015372532752
1.3650227503791732	0.08784551070124151
1.3660227670461176	0.03261621156596269
1.367022783713062	0.061152259831929554
1.3680228003800063	0.11836649913718744
1.369022817046951	0.11505840097320492
1.3700228337138953	0.10138474914203144
1.3710228503808397	0.08890423930258005
1.3720228670477843	0.11677328821302269
1.3730228837147287	0.10076980857521986
1.374022900381673	0.13520537942642624
1.3750229170486177	0.08862908129588262
1.376022933715562	0.11564000089445908
1.3770229503825064	0.07681164856950459
1.378022967049451	0.052841014773252655
1.3790229837163954	0.07307721502479861
1.3800230003833398	0.09576706197806652
1.3810230170502842	0.03434169237406167
1.3820230337172288	0.07150032219641729
1.3830230503841732	0.10244110339980012
1.3840230670511176	0.04649594935890524
1.3850230837180622	0.1030142239127643
1.3860231003850065	0.0924745978341677
1.387023117051951	0.08568780944804809
1.3880231337188955	0.0432903987295685
1.38902315038584	0.1116494790306648
1.3900231670527843	0.07662385236588688
1.3910231837197289	0.07307714886427284
1.3920232003866733	0.03713095544333709
1.3930232170536176	0.0680160704202827
1.394023233720562	0.08808793901554779
1.3950232503875066	0.04702966468445981
1.396023267054451	0.01930291970785329
1.3970232837213954	0.05050351594229097
1.39802330038834	0.04841958516627705
1.3990233170552844	0.041222934952029014
1.4000233337222288	0.05237780450392509
1.4010233503891734	0.034387126049014984
1.4020233670561177	0.12171588909736507
1.4030233837230621	0.13002184359055635
1.4040234003900067	0.08924745342804108
1.405023417056951	0.08836961158408473
1.4060234337238955	0.09307491174663124
1.4070234503908399	0.03459320324813288
1.4080234670577845	0.07389595493445972
1.4090234837247289	0.11189429084063826
1.4100235003916732	0.0584104941714358
1.4110235170586178	0.10107262008142182
1.4120235337255622	0.09568783325730565
1.4130235503925066	0.05360904922118806
1.4140235670594512	0.0964745364685861
1.4150235837263956	0.11118695364970244
1.41602360039334	0.11670808918640069
1.4170236170602846	0.0670032758653923
1.418023633727229	0.10241334034458047
1.4190236503941733	0.04154661509973677
1.4200236670611177	0.0804292994746058
1.4210236837280623	0.025613108226923177
1.4220237003950067	0.029509028850208868
1.423023717061951	0.08776122578998079
1.4240237337288957	0.08325199490380092
1.42502375039584	0.037158735652809964
1.4260237670627844	0.03767028954823288
1.427023783729729	0.04983333170671993
1.4280238003966734	0.09411099166080925
1.4290238170636178	0.05595828896650043
1.4300238337305622	0.07656531787946165
1.4310238503975068	0.04134092901352171
1.4320238670644512	0.10485318002029685
1.4330238837313956	0.07893703829299314
1.4340239003983402	0.06029785478354839
1.4350239170652845	0.08460398801265923
1.436023933732229	0.06769574766612575
1.4370239503991735	0.04762233803020918
1.438023967066118	0.09024655173213593
1.4390239837330623	0.09106037658242352
1.4400240004000069	0.08791602060540488
1.4410240170669513	0.11925648303483918
1.4420240337338956	0.0951498576904598
1.44302405040084	0.11412926919670993
1.4440240670677846	0.12532138058486234
1.445024083734729	0.11914946797273322
1.4460241004016734	0.0846301496911932
1.447024117068618	0.0201278235797974
1.4480241337355624	0.12335068046792257
1.4490241504025068	0.08799443572999843
1.4500241670694514	0.11227348365038022
1.4510241837363957	0.025666014341839488
1.4520242004033401	0.05629391223024235
1.4530242170702847	0.1144391213995963
1.454024233737229	0.08149243602681965
1.4550242504041735	0.05785142071250894
1.4560242670711179	0.039579954843315834
1.4570242837380625	0.1052875287769905
1.4580243004050069	0.12379937949182496
1.4590243170719512	0.09816550282759101
1.4600243337388958	0.08333630110747388
1.4610243504058402	0.06668981312708841
1.4620243670727846	0.12393473033377873
1.4630243837397292	0.08148723088550604
1.4640244004066736	0.09828766521070462
1.465024417073618	0.1457761274031414
1.4660244337405626	0.06990070869213916
1.467024450407507	0.13129179513927589
1.4680244670744513	0.1057079375468488
1.4690244837413957	0.10527612635137587
1.4700245004083403	0.10502660460437026
1.4710245170752847	0.12786505959258754
1.472024533742229	0.03983578582170287
1.4730245504091737	0.10829370788813664
1.474024567076118	0.025997941599725034
1.4750245837430624	0.011129952690690392
1.476024600410007	0.10269513643073513
1.4770246170769514	0.06965388886297301
1.4780246337438958	0.12655428531400267
1.4790246504108404	0.1025950521573642
1.4800246670777848	0.07291134702485436
1.4810246837447292	0.0499279019207645
1.4820247004116736	0.09785645909296366
1.4830247170786182	0.048199332350626414
1.4840247337455625	0.0950650292696596
1.485024750412507	0.04377997138208051
1.4860247670794515	0.07625680956628865
1.487024783746396	0.02899528162639841
1.4880248004133403	0.1136626335703425
1.489024817080285	0.05061349370374042
1.4900248337472293	0.12065646386513057
1.4910248504141737	0.08866436847525652
1.4920248670811183	0.10193683595682478
1.4930248837480626	0.0985586687180372
1.494024900415007	0.0470029962470845
1.4950249170819514	0.049373738302048054
1.496024933748896	0.08479313775596962
1.4970249504158404	0.13329129054013628
1.4980249670827848	0.08497514370232702
1.4990249837497294	0.049720849164674744
1.5000250004166737	0.04482940190641818
1.5010250170836181	0.08448881481235389
1.5020250337505627	0.06454516872027853
1.5030250504175071	0.050142175182273
1.5040250670844515	0.09683673708005659
1.5050250837513959	0.056154640483120535
1.5060251004183405	0.10827387430326618
1.5070251170852849	0.027176760078514512
1.5080251337522292	0.09447407762703848
1.5090251504191738	0.09840750647061859
1.5100251670861182	0.05372532601010286
1.5110251837530626	0.08019811104901725
1.5120252004200072	0.05256353590825885
1.5130252170869516	0.04550656117896048
1.514025233753896	0.05499693014681692
1.5150252504208406	0.10383829488686254
1.516025267087785	0.08221414627717251
1.5170252837547293	0.014910092008165454
1.5180253004216737	0.03719033082858827
1.5190253170886183	0.037152015958156585
1.5200253337555627	0.06963700803624687
1.521025350422507	0.14859850004489022
1.5220253670894517	0.03299280707464003
1.523025383756396	0.07697290899103668
1.5240254004233404	0.06955524215369178
1.525025417090285	0.10073097546038061
1.5260254337572294	0.039519523345250204
1.5270254504241738	0.026470482631085163
1.5280254670911184	0.11665680811247535
1.5290254837580628	0.03808485173715175
1.5300255004250072	0.03932580640847119
1.5310255170919516	0.09823787188367386
1.5320255337588962	0.13346657103865153
1.5330255504258405	0.08163541469351802
1.534025567092785	0.05518671209447136
1.5350255837597295	0.04458553321049846
1.536025600426674	0.027409613557082605
1.5370256170936183	0.09124494709049501
1.538025633760563	0.053799170464737506
1.5390256504275073	0.11378633954120432
1.5400256670944517	0.0846552324474892
1.5410256837613963	0.09810341164239773
1.5420257004283406	0.0805086058468613
1.543025717095285	0.027597559017004822
1.5440257337622294	0.05211842441000793
1.545025750429174	0.08608305298933287
1.5460257670961184	0.09416393595307931
1.5470257837630628	0.09498139207675126
1.5480258004300074	0.021023494042896742
1.5490258170969518	0.0813184918279124
1.5500258337638961	0.03189689295572114
1.5510258504308407	0.13435435863568182
1.5520258670977851	0.1296478617716902
1.5530258837647295	0.10464635637889408
1.554025900431674	0.12995425165580593
1.5550259170986185	0.03466625541238274
1.5560259337655629	0.03415884933005148
1.5570259504325072	0.08561967195296168
1.5580259670994518	0.10056763471085643
1.5590259837663962	0.04290663760915117
1.5600260004333406	0.08373842646454005
1.5610260171002852	0.07441305156294578
1.5620260337672296	0.12818431225200802
1.563026050434174	0.08647331897691168
1.5640260671011186	0.09019363633716262
1.565026083768063	0.07766210330754744
1.5660261004350073	0.1314389406612328
1.567026117101952	0.12312253892315601
1.5680261337688963	0.0596077922583586
1.5690261504358407	0.12796244885321748
1.570026167102785	0.052848083096315744
1.5710261837697297	0.026179062483949942
1.572026200436674	0.11278096031806428
1.5730262171036185	0.10848325551047319
1.574026233770563	0.076923020924619
1.5750262504375074	0.07741494800521757
1.5760262671044518	0.03703972870143116
1.5770262837713964	0.07216719277024553
1.5780263004383408	0.09065760003824484
1.5790263171052852	0.13847656671842212
1.5800263337722296	0.09349374752288477
1.5810263504391742	0.0516694689597032
1.5820263671061185	0.06167570256295521
1.583026383773063	0.05031274481662535
1.5840264004400075	0.03854623053966441
1.585026417106952	0.07142455927902489
1.5860264337738963	0.08037788860278482
1.587026450440841	0.1148133928937425
1.5880264671077853	0.04835776691253034
1.5890264837747297	0.07327895784557155
1.5900265004416743	0.06836538299407474
1.5910265171086186	0.11013809406014591
1.592026533775563	0.03899566674013371
1.5930265504425074	0.07958114801966687
1.594026567109452	0.08729432047261235
1.5950265837763964	0.13972277790233148
1.5960266004433408	0.05397107015735648
1.5970266171102854	0.07461603860177038
1.5980266337772298	0.0798052082227596
1.5990266504441741	0.09386544759303488
1.6000266671111187	0.10418735549282908
1.6010266837780631	0.0823397530007634
1.6020267004450075	0.10413654590246631
1.603026717111952	0.11775276459465785
1.6040267337788965	0.05366526615302809
1.6050267504458409	0.05558679890661172
1.6060267671127852	0.11429926187439442
1.6070267837797299	0.11774471164044191
1.6080268004466742	0.0741616860819517
1.6090268171136186	0.09900752956041656
1.6100268337805632	0.06424077002510593
1.6110268504475076	0.11271663509113557
1.612026867114452	0.06495807036651713
1.6130268837813966	0.06999234553309862
1.614026900448341	0.03155157948086172
1.6150269171152853	0.08273549902637511
1.61602693378223	0.08992991780153671
1.6170269504491743	0.08843269352040435
1.6180269671161187	0.09366992497855871
1.619026983783063	0.1248570371949037
1.6200270004500077	0.0563526284202263
1.621027017116952	0.12218456293631334
1.6220270337838965	0.10569145721882219
1.623027050450841	0.11214085459873736
1.6240270671177854	0.11129179046135994
1.6250270837847298	0.07024465772512968
1.6260271004516744	0.07139716735450913
1.6270271171186188	0.11356865938784667
1.6280271337855632	0.10819380481062543
1.6290271504525078	0.11331860415168198
1.6300271671194522	0.14349973320423834
1.6310271837863966	0.07796441059564546
1.632027200453341	0.11203041841113937
1.6330272171202855	0.09911751991369475
1.63402723378723	0.03907125747173106
1.6350272504541743	0.12281616549453162
1.636027267121119	0.045931781433441524
1.6370272837880633	0.12372025197758946
1.6380273004550077	0.07272836950381961
1.6390273171219523	0.08886778757614043
1.6400273337888966	0.08810078670092338
1.641027350455841	0.060136699334969054
1.6420273671227856	0.030354733181441287
1.64302738378973	0.13420855292399483
1.6440274004566744	0.10555254801898653
1.6450274171236188	0.1292906708759451
1.6460274337905634	0.06356409407431338
1.6470274504575078	0.08465470546587456
1.6480274671244521	0.06979111425397672
1.6490274837913967	0.10316416468205233
1.6500275004583411	0.06163826078143893
1.6510275171252855	0.06583688641606858
1.65202753379223	0.07238026989474797
1.6530275504591745	0.05693350792737359
1.6540275671261189	0.06429438454417255
1.6550275837930633	0.050726998300920256
1.6560276004600079	0.018548672241656256
1.6570276171269522	0.07350726627700506
1.6580276337938966	0.07797534912548214
1.6590276504608412	0.04603114328474338
1.6600276671277856	0.11024878603597472
1.66102768379473	0.08454157869659566
1.6620277004616746	0.0991481411760435
1.663027717128619	0.08663685392525115
1.6640277337955633	0.1289312381630965
1.665027750462508	0.06135108785066848
1.6660277671294523	0.07202703048380212
1.6670277837963967	0.08055779527983722
1.668027800463341	0.07208713218894568
1.6690278171302857	0.08161959138391366
1.67002783379723	0.07040941597967959
1.6710278504641745	0.07152699810330039
1.672027867131119	0.02347302528405608
1.6730278837980634	0.105769186885958
1.6740279004650078	0.07074324768376829
1.6750279171319524	0.03365654827324042
1.6760279337988968	0.05722066943471987
1.6770279504658412	0.07651951195169987
1.6780279671327858	0.03878052220876232
1.6790279837997302	0.04282584825789447
1.6800280004666746	0.0329197427247729
1.681028017133619	0.03957716515742225
1.6820280338005635	0.05313559677925261
1.683028050467508	0.08603324576605424
1.6840280671344523	0.029270639890312165
1.685028083801397	0.0976345317774044
1.6860281004683413	0.06711706330863748
1.6870281171352857	0.12208720144211042
1.6880281338022303	0.11960167677354806
1.6890281504691746	0.13613439314854217
1.690028167136119	0.11133931320802207
1.6910281838030636	0.12011663278918602
1.692028200470008	0.12293654961030138
1.6930282171369524	0.10782511416462405
1.6940282338038968	0.048966459147192526
1.6950282504708414	0.1068647369294102
1.6960282671377858	0.0937571632503608
1.6970282838047301	0.12964254730690297
1.6980283004716747	0.09791281059366792
1.6990283171386191	0.0683512364003876
1.7000283338055635	0.03120269156650717
1.701028350472508	0.0995660965571065
1.7020283671394525	0.07096890415216006
1.7030283838063969	0.051732628262499476
1.7040284004733415	0.096628304228775
1.7050284171402859	0.040341616101310804
1.7060284338072302	0.0698773261391901
1.7070284504741746	0.08944115807535025
1.7080284671411192	0.09020419601296514
1.7090284838080636	0.07725864457398046
1.710028500475008	0.10612501005938772
1.7110285171419526	0.05189250909553303
1.712028533808897	0.04425240345692469
1.7130285504758413	0.044213640444961955
1.714028567142786	0.10326975870062029
1.7150285838097303	0.13953631520647
1.7160286004766747	0.0404726256880157
1.7170286171436193	0.1169103254641463
1.7180286338105637	0.09502046666885026
1.719028650477508	0.06010537655488681
1.7200286671444525	0.051096062034462056
1.721028683811397	0.10839352219568507
1.7220287004783414	0.07514210860119042
1.7230287171452858	0.07043611185742041
1.7240287338122304	0.12491270054892611
1.7250287504791748	0.08761213569169243
1.7260287671461192	0.05002750162823398
1.7270287838130638	0.055064766892311566
1.7280288004800082	0.1250228712553061
1.7290288171469526	0.06038163103404956
1.730028833813897	0.09488618801544126
1.7310288504808415	0.08495690895529937
1.732028867147786	0.06793924123876366
1.7330288838147303	0.038780326059605394
1.734028900481675	0.0661341215545603
1.7350289171486193	0.08558198099546403
1.7360289338155637	0.10396408159283828
1.7370289504825083	0.04165809172702596
1.7380289671494527	0.11964732496700338
1.739028983816397	0.12057847363715514
1.7400290004833416	0.08783995721619349
1.741029017150286	0.06579391044463298
1.7420290338172304	0.09468632173282253
1.7430290504841748	0.07404102067794474
1.7440290671511194	0.06436539158201159
1.7450290838180638	0.02798905408850489
1.7460291004850081	0.05257141726758682
1.7470291171519527	0.09263077896338208
1.7480291338188971	0.12057490910125154
1.7490291504858415	0.1239154183939634
1.7500291671527861	0.09085807410553337
1.7510291838197305	0.041629969273191826
1.7520292004866749	0.13944505374719793
1.7530292171536195	0.042730194634612736
1.7540292338205639	0.08293568813309578
1.7550292504875082	0.09344363110149159
1.7560292671544526	0.11671923705875194
1.7570292838213972	0.06323342403791207
1.7580293004883416	0.0532879679405284
1.759029317155286	0.0739663836763085
1.7600293338222306	0.12331560388700427
1.761029350489175	0.14511099450163673
1.7620293671561194	0.018939310779369216
1.763029383823064	0.08646164132497706
1.7640294004900083	0.07511571381752144
1.7650294171569527	0.042138138940650736
1.7660294338238973	0.02160259945573531
1.7670294504908417	0.0349737076756388
1.768029467157786	0.08403724961054299
1.7690294838247305	0.057917410775233394
1.770029500491675	0.10528076269548113
1.7710295171586194	0.05577086238991251
1.7720295338255638	0.11737874276440215
1.7730295504925084	0.0846061122874359
1.7740295671594528	0.1198628303391919
1.7750295838263972	0.09704039947350959
1.7760296004933418	0.10413902472838961
1.7770296171602862	0.11116346263995153
1.7780296338272306	0.14029439448825354
1.7790296504941752	0.07758639422088275
1.7800296671611195	0.07921441769697188
1.781029683828064	0.060755974312182506
1.7820297004950083	0.10666890047466007
1.783029717161953	0.0885017588803077
1.7840297338288973	0.04300890098507921
1.7850297504958417	0.06828775991858402
1.7860297671627863	0.04077705137105347
1.7870297838297307	0.07674828743586488
1.788029800496675	0.09568580261417305
1.7890298171636196	0.14527875409826427
1.790029833830564	0.022851852762828376
1.7910298504975084	0.05339702849024257
1.792029867164453	0.09730897332206277
1.7930298838313974	0.053917363846776804
1.7940299004983418	0.12404852986108875
1.7950299171652861	0.06838528875145009
1.7960299338322308	0.07207163506367002
1.7970299504991751	0.10320703119554409
1.7980299671661195	0.11789946436435643
1.7990299838330641	0.04402551582176867
1.8000300005000085	0.06668202192979478
1.8010300171669529	0.13863508873100114
1.8020300338338975	0.10976187804666708
1.8030300505008419	0.07178621572124692
1.8040300671677862	0.01765323829644111
1.8050300838347306	0.033152635576220946
1.8060301005016752	0.10746790220614282
1.8070301171686196	0.07437016773791175
1.808030133835564	0.080076926869277
1.8090301505025086	0.10452622449710937
1.810030167169453	0.10773890015803321
1.8110301838363974	0.1137474460170139
1.812030200503342	0.0716313812494171
1.8130302171702863	0.06014234589576809
1.8140302338372307	0.06542510520690376
1.8150302505041753	0.08605392454324276
1.8160302671711197	0.1030408628678359
1.817030283838064	0.07358315590105129
1.8180303005050085	0.10278525493501348
1.819030317171953	0.1387655692850747
1.8200303338388975	0.10115243045458824
1.8210303505058418	0.08028875584835765
1.8220303671727864	0.08727864984140941
1.8230303838397308	0.1131498018259279
1.8240304005066752	0.12355927360207572
1.8250304171736198	0.05048688122198061
1.8260304338405642	0.04794891580013501
1.8270304505075086	0.1193167813981199
1.8280304671744532	0.04940894650137586
1.8290304838413975	0.11274563861132486
1.830030500508342	0.03731399075799159
1.8310305171752863	0.026775298675087055
1.832030533842231	0.09738172242085033
1.8330305505091753	0.06407283439245047
1.8340305671761197	0.06998888962142152
1.8350305838430643	0.0937349446664292
1.8360306005100087	0.10574744906424419
1.837030617176953	0.04154623731281934
1.8380306338438976	0.06397122232373784
1.839030650510842	0.09560199608540709
1.8400306671777864	0.09582911423873675
1.841030683844731	0.09408307947998856
1.8420307005116754	0.14242047589457602
1.8430307171786198	0.10503101899868743
1.8440307338455642	0.12167682345794613
1.8450307505125088	0.029723822707825885
1.8460307671794531	0.06492081047383251
1.8470307838463975	0.046830574526741886
1.8480308005133421	0.06406899734238095
1.8490308171802865	0.021603398485638782
1.8500308338472309	0.11779362928466157
1.8510308505141755	0.10107345248470327
1.8520308671811199	0.06070607310335585
1.8530308838480642	0.03993186181591775
1.8540309005150089	0.08807129642212841
1.8550309171819532	0.024145248294969165
1.8560309338488976	0.0734137705184755
1.857030950515842	0.10275225151297529
1.8580309671827866	0.12268052975983193
1.859030983849731	0.0486616042132445
1.8600310005166754	0.10730405468714534
1.86103101718362	0.0629670869408228
1.8620310338505643	0.08052307767078865
1.8630310505175087	0.12031649012130063
1.8640310671844533	0.11067756896922534
1.8650310838513977	0.1148614230893193
1.866031100518342	0.07404407229891455
1.8670311171852865	0.10710323820066342
1.868031133852231	0.1349400921477782
1.8690311505191755	0.13922533321921496
1.8700311671861198	0.08913162030726278
1.8710311838530644	0.0553797620334876
1.8720312005200088	0.04004464687514759
1.8730312171869532	0.07994442950348943
1.8740312338538978	0.1140163098395004
1.8750312505208422	0.045999407228168136
1.8760312671877866	0.06335578379199228
1.8770312838547312	0.06782752780366609
1.8780313005216756	0.035844689390500964
1.87903131718862	0.09660041380610326
1.8800313338555643	0.08925006774158718
1.881031350522509	0.09808024615010799
1.8820313671894533	0.02964229501452002
1.8830313838563977	0.08190146046907604
1.8840314005233423	0.09633321474127184
1.8850314171902867	0.12327355162546444
1.886031433857231	0.12239251827115911
1.8870314505241756	0.08972040315771543
1.88803146719112	0.06776650127618856
1.8890314838580644	0.027597410137713416
1.890031500525009	0.06178800458173365
1.8910315171919534	0.05799622452161228
1.8920315338588978	0.09210714589779805
1.8930315505258422	0.1401183430138924
1.8940315671927868	0.14157184503859957
1.8950315838597311	0.027258562530003812
1.8960316005266755	0.0559763176822417
1.8970316171936201	0.11700082738933447
1.8980316338605645	0.12885976257046833
1.8990316505275089	0.06657712103234209
1.9000316671944535	0.08893319329469847
1.9010316838613979	0.05219839998480564
1.9020317005283423	0.09642489587227406
1.9030317171952869	0.0731880013050364
1.9040317338622312	0.1374405948882538
1.9050317505291756	0.1034861883602315
1.90603176719612	0.1303031062715758
1.9070317838630646	0.0471460190844757
1.908031800530009	0.10184449350735604
1.9090318171969534	0.0892773774224981
1.910031833863898	0.07893421004787624
1.9110318505308423	0.047775758642541216
1.9120318671977867	0.10967206554992526
1.9130318838647313	0.03994569826629288
1.9140319005316757	0.13555409227763882
1.91503191719862	0.10363520548362007
1.9160319338655647	0.06552295971503731
1.917031950532509	0.1355018336954245
1.9180319671994535	0.08434944325731591
1.9190319838663978	0.14262285097452693
1.9200320005333424	0.07156022325662266
1.9210320172002868	0.07837423920572646
1.9220320338672312	0.12196930119039963
1.9230320505341758	0.07126761825309859
1.9240320672011202	0.13439494618715542
1.9250320838680646	0.04057329572100906
1.9260321005350092	0.08114449414557984
1.9270321172019536	0.10344110345930363
1.928032133868898	0.10701434240156214
1.9290321505358425	0.04727766839253241
1.930032167202787	0.05340924541785173
1.9310321838697313	0.05122406760575495
1.9320322005366757	0.04045953582058043
1.9330322172036203	0.11983129105884392
1.9340322338705647	0.12501747491667364
1.935032250537509	0.09341221967249876
1.9360322672044536	0.08727324097255683
1.937032283871398	0.1304384162662796
1.9380323005383424	0.11077013729203677
1.939032317205287	0.08728667016470484
1.9400323338722314	0.08048603836236688
1.9410323505391758	0.08234624555996932
1.9420323672061202	0.061000374862438464
1.9430323838730648	0.09902160555861704
1.9440324005400091	0.047330520266296236
1.9450324172069535	0.08459351324874767
1.9460324338738981	0.0810317793037493
1.9470324505408425	0.07704343442851685
1.9480324672077869	0.10155680098757576
1.9490324838747315	0.057877964670488134
1.9500325005416759	0.08546858885061373
1.9510325172086203	0.045917097723015755
1.9520325338755649	0.0748673615737994
1.9530325505425092	0.11284948473696685
1.9540325672094536	0.04965964555991312
1.955032583876398	0.02134946445979078
1.9560326005433426	0.07471256253842981
1.957032617210287	0.09058205740582172
1.9580326338772314	0.0819859487218386
1.959032650544176	0.09809608718415071
1.9600326672111203	0.13005460763375518
1.9610326838780647	0.06858770378975118
1.9620327005450093	0.030593640938124174
1.9630327172119537	0.05056066906716333
1.964032733878898	0.01601470121156631
1.9650327505458427	0.09073899920765786
1.966032767212787	0.10464158780941842
1.9670327838797315	0.06611994279505766
1.9680328005466758	0.12253099740378721
1.9690328172136204	0.09730470003473199
1.9700328338805648	0.06767658925553614
1.9710328505475092	0.08873145356642982
1.9720328672144538	0.04853617481612231
1.9730328838813982	0.025886615886349877
1.9740329005483426	0.0663084940998854
1.9750329172152872	0.059740074636268
1.9760329338822316	0.08351688742467148
1.977032950549176	0.09889097079981508
1.9780329672161205	0.036596408643010864
1.979032983883065	0.03164879165697943
1.9800330005500093	0.10308736178232245
1.9810330172169537	0.09560310499641875
1.9820330338838983	0.09600658667414408
1.9830330505508427	0.09075534479731086
1.984033067217787	0.07861145214039841
1.9850330838847317	0.07650135719335689
1.986033100551676	0.11531192545030211
1.9870331172186204	0.05076547483525906
1.988033133885565	0.09476951470732119
1.9890331505525094	0.06369677440194192
1.9900331672194538	0.04289213962310125
1.9910331838863984	0.09796363092843835
1.9920332005533428	0.05068830132417046
1.9930332172202871	0.10339885565893561
1.9940332338872315	0.05009946068478048
1.9950332505541761	0.06434732701477396
1.9960332672211205	0.1116388521819317
1.997033283888065	0.05932780956022966
1.9980333005550095	0.07740695682377516
1.9990333172219539	0.038277524871307714
2.0000333338888985	0.1198010684977173
2.0010333505558426	0.09798311588485122
2.0020333672227872	0.10091492624954801
2.003033383889732	0.05766412016541699
2.004033400556676	0.027160627928559163
2.0050334172236206	0.08238787782942521
2.006033433890565	0.09627051035276307
2.0070334505575094	0.09201250843144158
2.008033467224454	0.04182431300119898
2.0090334838913986	0.04016484964177793
2.0100335005583427	0.10965921733855773
2.0110335172252873	0.06971787294457434
2.0120335338922315	0.036050559161612566
2.013033550559176	0.11280648803193752
2.0140335672261207	0.07170245377720437
2.015033583893065	0.0828289454676476
2.0160336005600095	0.0518478282036627
2.017033617226954	0.06810333982936581
2.0180336338938982	0.06878409236771744
2.019033650560843	0.05820292879174562
2.0200336672277874	0.07775641545233533
2.0210336838947316	0.06485149323231096
2.022033700561676	0.0697801541269927
2.023033717228621	0.06696244353478044
2.024033733895565	0.13000866060767463
2.0250337505625096	0.06583394995183037
2.026033767229454	0.1215186780673711
2.0270337838963983	0.1092629543947368
2.028033800563343	0.1175673869431348
2.0290338172302875	0.05363275954224099
2.0300338338972317	0.02832707984714016
2.0310338505641763	0.03495632446128307
2.032033867231121	0.030836431456680975
2.033033883898065	0.06439214739890185
2.0340339005650097	0.07606861717618478
2.0350339172319543	0.07716429792005418
2.0360339338988984	0.07150697675640709
2.037033950565843	0.10156849088536761
2.038033967232787	0.04920231849729357
2.039033983899732	0.047074470927152376
2.0400340005666764	0.08557169324381003
2.0410340172336205	0.0936242949284776
2.042034033900565	0.049280002860222924
2.0430340505675098	0.028310135741585096
2.044034067234454	0.08387963845134441
2.0450340839013985	0.09865450592089488
2.046034100568343	0.09893843801596813
2.0470341172352873	0.11829544440176752
2.048034133902232	0.05323001057112347
2.0490341505691765	0.04057407333990894
2.0500341672361206	0.09665126725232437
2.0510341839030652	0.07435631219317818
2.05203420057001	0.1195292564099026
2.053034217236954	0.036199424903482366
2.0540342339038986	0.08717405838748828
2.055034250570843	0.0988488596425569
2.0560342672377874	0.062485239287797714
2.057034283904732	0.103114402184676
2.0580343005716766	0.03158694672725875
2.0590343172386207	0.0746524366376659
2.0600343339055653	0.03943789397437955
2.0610343505725095	0.10603348825446424
2.062034367239454	0.056852075168887954
2.0630343839063987	0.11512618661454768
2.064034400573343	0.060821595319849465
2.0650344172402875	0.10111541611596514
2.066034433907232	0.08270651436586131
2.0670344505741762	0.045892956927144624
2.068034467241121	0.13340726361073868
2.0690344839080654	0.08287571509530543
2.0700345005750096	0.12466198236916613
2.071034517241954	0.042759388193250765
2.072034533908899	0.05980501125361136
2.073034550575843	0.07119404645928905
2.0740345672427876	0.07928720307640189
2.075034583909732	0.09460408824524096
2.0760346005766763	0.07340872924365359
2.077034617243621	0.07585593708464937
2.0780346339105655	0.052282399838521454
2.0790346505775097	0.12462249461559863
2.0800346672444543	0.0923530678452366
2.081034683911399	0.1196115760246788
2.082034700578343	0.049372722183221605
2.0830347172452877	0.0759570933056546
2.0840347339122323	0.05616531902110336
2.0850347505791764	0.10019283822424362
2.086034767246121	0.12459222791866917
2.087034783913065	0.1304701284109403
2.08803480058001	0.12386323476321764
2.0890348172469544	0.05630809997661118
2.0900348339138985	0.07532865524587114
2.091034850580843	0.07504479207996329
2.0920348672477878	0.06905437163545225
2.093034883914732	0.05549001892819615
2.0940349005816765	0.13461904914289052
2.095034917248621	0.11936708670972815
2.0960349339155653	0.08014439028408796
2.09703495058251	0.03785348747015867
2.0980349672494545	0.09354405638976696
2.0990349839163986	0.036080843784826344
2.1000350005833432	0.06939568951615087
2.101035017250288	0.06319437645210721
2.102035033917232	0.13916036046703012
2.1030350505841766	0.06642686145066248
2.104035067251121	0.03688007223918917
2.1050350839180654	0.053592157279435566
2.10603510058501	0.042971565341725707
2.1070351172519546	0.0804984512235904
2.1080351339188987	0.09498912495631104
2.1090351505858433	0.04201509939194404
2.110035167252788	0.0759816607884597
2.111035183919732	0.0469829788723586
2.1120352005866767	0.08314016033642674
2.113035217253621	0.049959646286952056
2.1140352339205655	0.06430534318474322
2.11503525058751	0.08154591584894741
2.1160352672544542	0.02429751687726094
2.117035283921399	0.1179956108960528
2.1180353005883434	0.12615280375446777
2.1190353172552876	0.11471019412051736
2.120035333922232	0.009715252545219193
2.121035350589177	0.11923326723895221
2.122035367256121	0.07641757463486457
2.1230353839230656	0.04522250172112527
2.12403540059001	0.09543919300884879
2.1250354172569543	0.04357800847883374
2.126035433923899	0.028930699963397487
2.1270354505908435	0.07397128196189737
2.1280354672577877	0.14055765565783052
2.1290354839247323	0.10676335832488616
2.130035500591677	0.1324537675581664
2.131035517258621	0.08542331945910962
2.1320355339255657	0.06615867507954072
2.1330355505925103	0.12202143215571357
2.1340355672594544	0.0717270136845727
2.135035583926399	0.07610057427706657
2.136035600593343	0.10574184230553953
2.137035617260288	0.10451176384743899
2.1380356339272324	0.12606014427060197
2.1390356505941766	0.016636522861807036
2.140035667261121	0.12992131979812419
2.1410356839280658	0.041652987325530196
2.14203570059501	0.048873614375830585
2.1430357172619545	0.11871385215739151
2.144035733928899	0.053034679175154385
2.1450357505958433	0.06705609174209012
2.146035767262788	0.04120752367875392
2.1470357839297325	0.1101867181286503
2.1480358005966766	0.0867215032734311
2.1490358172636213	0.05293993490641043
2.150035833930566	0.10926192224314761
2.15103585059751	0.057094787186917774
2.1520358672644546	0.10077295171657383
2.153035883931399	0.055149188700192996
2.1540359005983434	0.026943938627019492
2.155035917265288	0.03202585778138123
2.1560359339322326	0.06306228598792983
2.1570359505991767	0.06503226796132071
2.1580359672661213	0.0898044303272989
2.159035983933066	0.04538008038865556
2.16003600060001	0.10246429098404276
2.1610360172669547	0.06526200406082823
2.162036033933899	0.06887713784234203
2.1630360506008435	0.05796160686520055
2.164036067267788	0.10400105061479055
2.1650360839347322	0.04097241046308278
2.166036100601677	0.0441810700751287
2.1670361172686214	0.029520723285157244
2.1680361339355656	0.11248476465673214
2.16903615060251	0.04799411374051792
2.170036167269455	0.10276527298115465
2.171036183936399	0.10921832832489688
2.1720362006033436	0.08341666771416276
2.173036217270288	0.12995414952986725
2.1740362339372323	0.07312226769505697
2.175036250604177	0.060877327119544876
2.1760362672711215	0.07910000192893121
2.1770362839380657	0.09415035532565658
2.1780363006050103	0.10382876475177234
2.179036317271955	0.061251793419910244
2.180036333938899	0.04654164255731169
2.1810363506058437	0.04026017578956861
2.1820363672727883	0.131472298908226
2.1830363839397324	0.08886251698180318
2.184036400606677	0.10946251806552969
2.1850364172736216	0.054603553574565714
2.186036433940566	0.11173549454919159
2.1870364506075104	0.14009534998823622
2.1880364672744546	0.09576976795491923
2.189036483941399	0.042718496737023756
2.1900365006083438	0.1186078533851084
2.191036517275288	0.02850396336944176
2.1920365339422325	0.07600525490482508
2.193036550609177	0.0374246817901917
2.1940365672761213	0.10605143223683637
2.195036583943066	0.05299596662929604
2.1960366006100105	0.1090441905341119
2.1970366172769547	0.11940481041038785
2.1980366339438993	0.10944166320404201
2.199036650610844	0.10118697046838941
2.200036667277788	0.1043531071577202
2.2010366839447326	0.13741658210171834
2.2020367006116772	0.055850464153341155
2.2030367172786214	0.05443663349754526
2.204036733945566	0.04865200785356501
2.2050367506125106	0.01246050775253783
2.2060367672794547	0.1202880212861798
2.2070367839463993	0.07673584640866164
2.208036800613344	0.09604356901073312
2.209036817280288	0.043716313746231805
2.2100368339472327	0.10056587938325036
2.211036850614177	0.10817345837706643
2.2120368672811215	0.08352422966438197
2.213036883948066	0.11998762600388692
2.2140369006150102	0.06580201457139372
2.215036917281955	0.09057516022209436
2.2160369339488994	0.04046076494653904
2.2170369506158436	0.03869722691003996
2.218036967282788	0.059051594679249135
2.219036983949733	0.09500356340986488
2.220037000616677	0.05577097689839434
2.2210370172836216	0.03554006299642448
2.222037033950566	0.05145791153658799
2.2230370506175103	0.12097292295152823
2.224037067284455	0.118662238747898
2.2250370839513995	0.09919714182393646
2.2260371006183437	0.10155979965028383
2.2270371172852883	0.0928414377586051
2.228037133952233	0.0495112441203401
2.229037150619177	0.08444616363971198
2.2300371672861217	0.14134169644983596
2.2310371839530663	0.07441485341053579
2.2320372006200104	0.05082411699695132
2.233037217286955	0.12317726272939167
2.2340372339538996	0.07457235263550224
2.235037250620844	0.10907386916607215
2.2360372672877884	0.07550259465095942
2.2370372839547326	0.12641017647089103
2.238037300621677	0.1239495752775427
2.2390373172886218	0.07519194497146886
2.240037333955566	0.05339722707481051
2.2410373506225105	0.09607368091679018
2.242037367289455	0.08041986563496618
2.2430373839563993	0.13713852984159433
2.244037400623344	0.12256006687519184
2.2450374172902885	0.07700181613228131
2.2460374339572327	0.09788393214493078
2.2470374506241773	0.05641509973697783
2.248037467291122	0.07705943210306916
2.249037483958066	0.11317342649809277
2.2500375006250106	0.11083183974888307
2.2510375172919552	0.10053273696205701
2.2520375339588994	0.053572233122380936
2.253037550625844	0.09079132008440509
2.2540375672927886	0.019556975472451055
2.2550375839597327	0.12975603362276042
2.2560376006266774	0.1225580417305503
2.257037617293622	0.09248828136750216
2.258037633960566	0.06885410131494278
2.2590376506275107	0.08010727409404966
2.2600376672944553	0.037529936623463774
2.2610376839613995	0.07566472319800077
2.262037700628344	0.11785031090669489
2.2630377172952882	0.10409522264726
2.264037733962233	0.12099172633140454
2.2650377506291774	0.1092557809394635
2.2660377672961216	0.03821147267841277
2.267037783963066	0.12456056329989756
2.268037800630011	0.08021782772009062
2.269037817296955	0.07719532617228675
2.2700378339638996	0.09187441505501101
2.271037850630844	0.07862961558419623
2.2720378672977883	0.10761737947374678
2.273037883964733	0.05438040120229119
2.2740379006316775	0.10763223616822154
2.2750379172986217	0.07311547743693035
2.2760379339655663	0.12767782733071745
2.277037950632511	0.05110302457889116
2.278037967299455	0.08834102530705454
2.2790379839663997	0.04494095896869911
2.2800380006333443	0.0667979615143717
2.2810380173002884	0.05810751394855995
2.282038033967233	0.03864634219244082
2.2830380506341776	0.08574649176933014
2.284038067301122	0.0534316868639846
2.2850380839680664	0.03714570859341623
2.2860381006350106	0.1288660164259047
2.287038117301955	0.06406423541824982
2.2880381339688998	0.08598566459045008
2.289038150635844	0.08549567452563195
2.2900381673027885	0.04743533741056246
2.291038183969733	0.11794417195199718
2.2920382006366773	0.05344619602451472
2.293038217303622	0.0863299425022922
2.2940382339705665	0.06622734986640456
2.2950382506375107	0.09554087177253066
2.2960382673044553	0.1228566227053354
2.2970382839714	0.10045746461508076
2.298038300638344	0.10427557297905253
2.2990383173052886	0.028177217873391447
2.3000383339722332	0.09455886604544797
2.3010383506391774	0.11896152170228874
2.302038367306122	0.09846032108889496
2.3030383839730666	0.10662419011997316
2.3040384006400108	0.10613232605071646
2.3050384173069554	0.08561462748824526
2.3060384339739	0.0843854671921754
2.307038450640844	0.08307747597770355
2.3080384673077887	0.10178427691632272
2.3090384839747333	0.11417701874573094
2.3100385006416775	0.04896935888258279
2.311038517308622	0.07186103495152363
2.3120385339755662	0.12044902764072879
2.313038550642511	0.10421880774205014
2.3140385673094555	0.09593009304494024
2.3150385839763996	0.09667881834157346
2.316038600643344	0.045399284589671324
2.317038617310289	0.019986569001182952
2.318038633977233	0.12414092107297325
2.3190386506441776	0.04324257493132834
2.320038667311122	0.04004397121779316
2.3210386839780663	0.07766949835099358
2.322038700645011	0.10071669275314324
2.3230387173119555	0.060646549965523947
2.3240387339788997	0.10509162884379711
2.3250387506458443	0.09861921288876567
2.326038767312789	0.040879606545891796
2.327038783979733	0.10150148526837818
2.3280388006466777	0.1036138054330157
2.3290388173136223	0.04342888670680763
2.3300388339805664	0.1185661068600521
2.331038850647511	0.07619143395024332
2.3320388673144556	0.1163823737285694
2.3330388839814	0.0739994006286485
2.3340389006483444	0.13959406777508268
2.335038917315289	0.04409451034478189
2.336038933982233	0.12495213634541816
2.3370389506491778	0.07993674130314805
2.338038967316122	0.05429824079183279
2.3390389839830665	0.05548398847076651
2.340039000650011	0.12140327559118984
2.3410390173169553	0.11979382204271896
2.3420390339839	0.09639617304601598
2.3430390506508445	0.05583724627975013
2.3440390673177887	0.08399196194483627
2.3450390839847333	0.10551357292333868
2.346039100651678	0.07895198879734222
2.347039117318622	0.09408744645166406
2.3480391339855666	0.10808083354164705
2.3490391506525112	0.07903072562429687
2.3500391673194554	0.08631955338617221
2.3510391839864	0.11386211612636897
2.3520392006533446	0.1398873087049205
2.3530392173202888	0.014512578508578199
2.3540392339872334	0.08092841176064937
2.355039250654178	0.06266552214697994
2.356039267321122	0.047354346041944335
2.3570392839880667	0.09717711248891288
2.3580393006550113	0.12184296324692945
2.3590393173219555	0.07696463001424306
2.3600393339889	0.0374210561065069
2.3610393506558442	0.015823513995472695
2.362039367322789	0.09591644913831457
2.3630393839897335	0.03471303362173723
2.3640394006566776	0.1304676354604027
2.365039417323622	0.03811587663753068
2.366039433990567	0.07849920177766309
2.367039450657511	0.08419540798351699
2.3680394673244556	0.11282267462348261
2.3690394839914	0.058405275373980235
2.3700395006583443	0.09687414461552786
2.371039517325289	0.08365301206195382
2.3720395339922336	0.06024957425041443
2.3730395506591777	0.060031423018397326
2.3740395673261223	0.09212474091002623
2.375039583993067	0.1118112327401712
2.376039600660011	0.06873312846726373
2.3770396173269557	0.09043246784849233
2.3780396339939003	0.12881784731527587
2.3790396506608444	0.038036073985734914
2.380039667327789	0.06259390792955556
2.3810396839947336	0.03628474989927486
2.382039700661678	0.06073400963677675
2.3830397173286224	0.017772523262123557
2.384039733995567	0.058748305707432794
2.385039750662511	0.08394033734972278
2.3860397673294558	0.08996552592634036
2.3870397839964	0.11632544697910807
2.3880398006633445	0.08236722836924981
2.389039817330289	0.07174065255249942
2.3900398339972333	0.11489688912856638
2.391039850664178	0.09734465908188814
2.3920398673311225	0.054376584623869975
2.3930398839980667	0.12117053336161834
2.3940399006650113	0.045068811385243525
2.395039917331956	0.03953787822106955
2.3960399339989	0.10739447234973767
2.3970399506658446	0.07337402450978411
2.3980399673327892	0.09905909513031153
2.3990399839997334	0.10705502436165606
2.400040000666678	0.08267287167088569
2.4010400173336226	0.0998717653424725
2.4020400340005668	0.09292771025929411
2.4030400506675114	0.09221334800013467
2.404040067334456	0.031076873910268903
2.4050400840014	0.11049140549452734
2.4060401006683447	0.08195873166027268
2.4070401173352893	0.11503708934496033
2.4080401340022335	0.09892209658512569
2.409040150669178	0.13103045301523308
2.4100401673361227	0.07623677356185624
2.411040184003067	0.09287730360408572
2.4120402006700115	0.11644357379255371
2.4130402173369556	0.07394457631220892
2.4140402340039	0.08594677747771434
2.415040250670845	0.10492815976002243
2.416040267337789	0.13645238457313794
2.4170402840047336	0.04444741949879919
2.418040300671678	0.07508396130753772
2.4190403173386223	0.11063097681884598
2.420040334005567	0.052477949688095216
2.4210403506725116	0.11813351418894297
2.4220403673394557	0.07650512352660085
2.4230403840064003	0.026293715199906097
2.424040400673345	0.05956178154773837
2.425040417340289	0.13859139883625435
2.4260404340072337	0.0639965485087158
2.4270404506741783	0.11801400904949491
2.4280404673411224	0.14265272249027264
2.429040484008067	0.08332568200910165
2.4300405006750116	0.06052333856875898
2.431040517341956	0.08115523128519268
2.4320405340089004	0.0963725786988957
2.433040550675845	0.11514188147253612
2.434040567342789	0.10165210508868465
2.4350405840097338	0.08519134866864946
2.436040600676678	0.1146984636156069
2.4370406173436225	0.057728118556186724
2.438040634010567	0.03386008364666894
2.4390406506775113	0.07420103251282938
2.440040667344456	0.10497735067664271
2.4410406840114005	0.1052400409667987
2.4420407006783447	0.09336346339251425
2.4430407173452893	0.025625859483672995
2.444040734012234	0.07941398256790332
2.445040750679178	0.10153432029963909
2.4460407673461226	0.1406852566822419
2.4470407840130672	0.08968233027995434
2.4480408006800114	0.10083482290815102
2.449040817346956	0.08933556056129204
2.4500408340139006	0.04054012553496907
2.4510408506808448	0.07212041299801676
2.4520408673477894	0.09320570805368453
2.453040884014734	0.07968233595319286
2.454040900681678	0.10997541148918479
2.4550409173486227	0.04933965894528501
2.4560409340155673	0.106730989566997
2.4570409506825115	0.0514381809104362
2.458040967349456	0.03187021917628341
2.4590409840164007	0.0893163693858842
2.460041000683345	0.05870678954977708
2.4610410173502895	0.08546490551306891
2.4620410340172336	0.02838679755101647
2.4630410506841782	0.08531997950442238
2.464041067351123	0.05657821581627506
2.465041084018067	0.05765990304983767
2.4660411006850116	0.07582121188042648
2.467041117351956	0.10178163088924232
2.4680411340189004	0.12077761878658258
2.469041150685845	0.03076013979895162
2.4700411673527896	0.0796401297404292
2.4710411840197337	0.09008095422216346
2.4720412006866783	0.11451778138805192
2.473041217353623	0.05184501366760627
2.474041234020567	0.05465651473192781
2.4750412506875117	0.0669762207631359
2.4760412673544563	0.12881017878316534
2.4770412840214004	0.1161542345025457
2.478041300688345	0.04076987412082608
2.4790413173552897	0.03106934701258178
2.480041334022234	0.09376731088711694
2.4810413506891784	0.03278931491606373
2.482041367356123	0.10760078734591315
2.483041384023067	0.07189192214748776
2.484041400690012	0.0819698451165434
2.4850414173569564	0.10039692148925418
2.4860414340239005	0.057926651943083156
2.487041450690845	0.11617145610551409
2.4880414673577893	0.12886822269319392
2.489041484024734	0.11820969344851287
2.4900415006916785	0.04546584432306594
2.4910415173586227	0.11414886708935569
2.4920415340255673	0.05446490662076744
2.493041550692512	0.03828605475571858
2.494041567359456	0.03739395075851396
2.4950415840264006	0.03629249288498735
2.4960416006933452	0.05447951486760847
2.4970416173602894	0.04011269036212396
2.498041634027234	0.039090665445216305
2.4990416506941786	0.12643692561845107
2.5000416673611228	0.08989366781860794
2.5010416840280674	0.07688185653027187
2.502041700695012	0.061575221331174615
2.503041717361956	0.06397876996656982
2.5040417340289007	0.03597376868046815
2.5050417506958453	0.05563918871780478
2.5060417673627895	0.0757265129192334
2.507041784029734	0.1033294372625942
2.5080418006966787	0.0993629422166651
2.509041817363623	0.12700965396734856
2.5100418340305675	0.09327585093246128
2.5110418506975116	0.06394784262890577
2.5120418673644562	0.027859433023914165
2.513041884031401	0.06045919749717367
2.514041900698345	0.07453506142547318
2.5150419173652896	0.06430043718780429
2.516041934032234	0.12913128329462362
2.5170419506991784	0.11112381049696461
2.518041967366123	0.10188291729646207
2.5190419840330676	0.09069928694838189
2.5200420007000117	0.0793213274157145
2.5210420173669563	0.052256239421369574
2.522042034033901	0.0304340572520823
2.523042050700845	0.08299218053673267
2.5240420673677897	0.04364148065356752
2.5250420840347343	0.09420953946390408
2.5260421007016785	0.07034635754934786
2.527042117368623	0.12934251252382253
2.5280421340355677	0.11638799202016353
2.529042150702512	0.10995053038614651
2.5300421673694564	0.09582739542106553
2.531042184036401	0.10474782475818398
2.532042200703345	0.06504093955091257
2.53304221737029	0.09319492232531364
2.5340422340372344	0.03598203669012547
2.5350422507041785	0.06573837457336244
2.536042267371123	0.11371741739723559
2.5370422840380673	0.0967588397474762
2.538042300705012	0.08428600002349174
2.5390423173719565	0.09504501683220548
2.5400423340389007	0.13032346544871692
2.5410423507058453	0.05477521665675304
2.54204236737279	0.025878345742092117
2.543042384039734	0.11854204181842067
2.5440424007066786	0.0994589779443259
2.5450424173736232	0.13921809020526518
2.5460424340405674	0.13757932266943165
2.547042450707512	0.09033509591150232
2.5480424673744566	0.12206402010447806
2.5490424840414008	0.12563736047637974
2.5500425007083454	0.04367821825374787
2.55104251737529	0.04918951714455682
2.552042534042234	0.06049155707628277
2.5530425507091787	0.10780202700804073
2.5540425673761233	0.07835722641034802
2.5550425840430675	0.06173728442356469
2.556042600710012	0.06807670165030823
2.5570426173769567	0.07882451698619357
2.558042634043901	0.10409064754576793
2.5590426507108455	0.05392864814562933
2.5600426673777896	0.04471534728701562
2.5610426840447342	0.05364638728627236
2.562042700711679	0.11416154831342039
2.563042717378623	0.15294467054721683
2.5640427340455676	0.04945477300317216
2.565042750712512	0.07680539668204252
2.5660427673794564	0.06609130337700289
2.567042784046401	0.10325215751744472
2.5680428007133456	0.11078286138274644
2.5690428173802897	0.030342702022482158
2.5700428340472343	0.09387604258707993
2.571042850714179	0.04073019496556477
2.572042867381123	0.11917118702363282
2.5730428840480677	0.04439307037810161
2.5740429007150123	0.03687603353888999
2.5750429173819565	0.06845391200758592
2.576042934048901	0.05731408965603758
2.5770429507158457	0.12277844847438112
2.57804296738279	0.08198533779459276
2.5790429840497344	0.07036644657190277
2.580043000716679	0.10895287779780614
2.581043017383623	0.08805767895044006
2.582043034050568	0.0903933816421678
2.5830430507175124	0.12520944778046791
2.5840430673844565	0.08442339418646809
2.585043084051401	0.05252481595128309
2.5860431007183453	0.0827653098660229
2.58704311738529	0.121189428763136
2.5880431340522345	0.09321909265485456
2.5890431507191787	0.08355808220575564
2.5900431673861233	0.1026574246092142
2.591043184053068	0.06423601219500504
2.592043200720012	0.08212981528230923
2.5930432173869566	0.030124021951018883
2.5940432340539012	0.10410909855861655
2.5950432507208454	0.1176725982048188
2.59604326738779	0.09577413654842507
2.5970432840547346	0.09490738913773476
2.5980433007216788	0.09253502598121202
2.5990433173886234	0.09403756423357855
2.600043334055568	0.06952821259638395
2.601043350722512	0.04836601269397457
2.6020433673894567	0.12313222553193898
2.6030433840564013	0.11278872064438389
2.6040434007233455	0.09126098717220668
2.60504341739029	0.11268053933272579
2.6060434340572347	0.038971088554136925
2.607043450724179	0.0741351676708683
2.6080434673911235	0.06386725026924381
2.609043484058068	0.10796851577735339
2.6100435007250122	0.10995634728710507
2.611043517391957	0.10689742476898685
2.612043534058901	0.11664236732701834
2.6130435507258456	0.10687404963038742
2.61404356739279	0.03229090670098922
2.6150435840597344	0.053721247547944
2.616043600726679	0.08979211322140167
2.6170436173936236	0.052335368752649235
2.6180436340605677	0.025653127985156683
2.6190436507275123	0.05871876159100446
2.620043667394457	0.11061872071227227
2.621043684061401	0.11539456957698933
2.6220437007283457	0.03938581649526909
2.6230437173952903	0.1002041151588244
2.6240437340622345	0.0897140232231834
2.625043750729179	0.11353181331671429
2.6260437673961237	0.09615030551384593
2.627043784063068	0.06603854312128254
2.6280438007300124	0.030020392625633534
2.629043817396957	0.12167261570404224
2.630043834063901	0.09650130694414229
2.631043850730846	0.1026427139776783
2.6320438673977904	0.13459978399755526
2.6330438840647346	0.09117233530420177
2.634043900731679	0.10626128094415496
2.6350439173986233	0.1165537028585188
2.636043934065568	0.11952131416771995
2.6370439507325125	0.1267909288851885
2.6380439673994567	0.10444728673033508
2.6390439840664013	0.03449706513077962
2.640044000733346	0.08729905343219495
2.64104401740029	0.08698804088932499
2.6420440340672346	0.037885821514390315
2.6430440507341793	0.045281774879775485
2.6440440674011234	0.050571443142624725
2.645044084068068	0.04578384503708208
2.6460441007350126	0.08019039859579437
2.6470441174019568	0.05885115001277784
2.6480441340689014	0.08136006896457061
2.649044150735846	0.08796040820702007
2.65004416740279	0.10550504825480679
2.6510441840697347	0.12377230702669384
2.6520442007366793	0.09317066262740506
2.6530442174036235	0.07694185608761958
2.654044234070568	0.07661405071651456
2.6550442507375127	0.06146622493649895
2.656044267404457	0.05469558437724327
2.6570442840714015	0.05523095237434382
2.658044300738346	0.09412008656673188
2.6590443174052902	0.11278127583352963
2.660044334072235	0.05938599809427065
2.661044350739179	0.11558425733909948
2.6620443674061236	0.07656856850079322
2.663044384073068	0.09847040944710586
2.6640444007400124	0.13554431343508822
2.665044417406957	0.08762935705071238
2.6660444340739016	0.10295682173473
2.6670444507408457	0.05148353874858999
2.6680444674077903	0.10434052882555339
2.669044484074735	0.05431740718540756
2.670044500741679	0.11735740079787699
2.6710445174086237	0.11655675075811607
2.6720445340755683	0.0795586816153919
2.6730445507425125	0.02816606786658822
2.674044567409457	0.10369131492241467
2.6750445840764017	0.08885837951411767
2.676044600743346	0.048969824398697445
2.6770446174102904	0.12364076295833205
2.678044634077235	0.05182279072513596
2.679044650744179	0.12066309741150813
2.680044667411124	0.06615279018371904
2.6810446840780684	0.03797122092826572
2.6820447007450126	0.02559116472665284
2.683044717411957	0.04094834887767274
2.6840447340789018	0.13126095836780746
2.685044750745846	0.09722282511397812
2.6860447674127905	0.09918421338395954
2.6870447840797347	0.09959858340388594
2.6880448007466793	0.11573739551535059
2.689044817413624	0.11441065948806287
2.690044834080568	0.04404177810813466
2.6910448507475127	0.12756856951165355
2.6920448674144573	0.06691780019032983
2.6930448840814014	0.10637103606630505
2.694044900748346	0.07941749005510643
2.6950449174152906	0.07689464435756667
2.696044934082235	0.040419064022475006
2.6970449507491794	0.12129529818089087
2.698044967416124	0.03945974761632852
2.699044984083068	0.11923973913655415
2.7000450007500127	0.15161146058764674
2.7010450174169574	0.06072619848796864
2.7020450340839015	0.040662527569919296
2.703045050750846	0.1412441898583648
2.7040450674177907	0.06508076961201019
2.705045084084735	0.07409995263343894
2.7060451007516795	0.10487693318908817
2.707045117418624	0.09827629491167816
2.7080451340855682	0.09485422764788616
2.709045150752513	0.11598450548120919
2.710045167419457	0.09042560612330658
2.7110451840864016	0.06769053906043855
2.712045200753346	0.0687877624937054
2.7130452174202904	0.04698706012998912
2.714045234087235	0.10139734646031942
2.7150452507541796	0.08071195602173095
2.7160452674211237	0.041681994607978244
2.7170452840880683	0.11721031772551799
2.718045300755013	0.05177370365112231
2.719045317421957	0.11217461841225893
2.7200453340889017	0.037694173451492834
2.7210453507558463	0.06224036802368105
2.7220453674227905	0.1293933084684072
2.723045384089735	0.12812065084331603
2.7240454007566797	0.11760901533267076
2.725045417423624	0.059255844146651526
2.7260454340905684	0.045303894136260146
2.727045450757513	0.1122503105524148
2.728045467424457	0.09456617163570248
2.729045484091402	0.07621987256629328
2.7300455007583464	0.06909236761887087
2.7310455174252906	0.1240135038725619
2.732045534092235	0.09653832342394772
2.7330455507591798	0.05446711642627602
2.734045567426124	0.10350271039399757
2.7350455840930685	0.09789233937410774
2.7360456007600127	0.12403175092864811
2.7370456174269573	0.10062545148393712
2.738045634093902	0.02542650044757545
2.739045650760846	0.08430575203440549
2.7400456674277907	0.07316280448854334
2.7410456840947353	0.07535351914451494
2.7420457007616794	0.07278216015297367
2.743045717428624	0.04614913738679477
2.7440457340955686	0.09353959519705515
2.745045750762513	0.04964121727287726
2.7460457674294574	0.018244262025345175
2.747045784096402	0.1272508885627926
2.748045800763346	0.07585417691873951
2.7490458174302908	0.09395091886502467
2.7500458340972354	0.13496983885637
2.7510458507641795	0.09176802498909849
2.752045867431124	0.07556553335852319
2.7530458840980687	0.10370200684646023
2.754045900765013	0.08399117462897397
2.7550459174319575	0.11902729463259937
2.756045934098902	0.11310531198592058
2.7570459507658462	0.03758738970681379
2.758045967432791	0.06726786424567541
2.7590459840997354	0.10118691385227155
2.7600460007666796	0.11467848017945849
2.761046017433624	0.09888638584265698
2.7620460341005684	0.0899599971893352
2.763046050767513	0.11264721273431483
2.7640460674344576	0.045180591550445875
2.7650460841014017	0.0617891556483752
2.7660461007683463	0.04879165034915332
2.767046117435291	0.06089074449086806
2.768046134102235	0.01827585904359947
2.7690461507691797	0.06675426167649512
2.7700461674361243	0.05574846469568862
2.7710461841030685	0.11892891108208632
2.772046200770013	0.059957651653042635
2.7730462174369577	0.023104264858380026
2.774046234103902	0.053594096469236865
2.7750462507708464	0.05177584339008247
2.776046267437791	0.04819605572201278
2.777046284104735	0.12343942885517611
2.77804630077168	0.019823373722828767
2.7790463174386244	0.09823336109420985
2.7800463341055686	0.04398736483026682
2.781046350772513	0.10433648728704897
2.7820463674394578	0.06480508551490032
2.783046384106402	0.08145047521189927
2.7840464007733465	0.046074091639438854
2.7850464174402907	0.13066327246753984
2.7860464341072353	0.08445335083314438
2.78704645077418	0.06850500172151384
2.788046467441124	0.08942036151502075
2.7890464841080687	0.08983843021596717
2.7900465007750133	0.12169868917183975
2.7910465174419574	0.08711020029465132
2.792046534108902	0.08284025933882745
2.7930465507758466	0.031139602882706636
2.794046567442791	0.13257055336878495
2.7950465841097354	0.0970629464381264
2.79604660077668	0.08012147266708833
2.797046617443624	0.04893256181399488
2.7980466341105688	0.09167681466087352
2.7990466507775134	0.052145824744101746
2.8000466674444575	0.06877483048754085
2.801046684111402	0.14096238161835442
2.8020467007783467	0.12458004532749298
2.803046717445291	0.03255699131241324
2.8040467341122355	0.05998535035821252
2.80504675077918	0.046834364927072845
2.8060467674461242	0.10729936561656125
2.807046784113069	0.082054892177126
2.8080468007800135	0.04385539690719472
2.8090468174469576	0.1056317071271242
2.810046834113902	0.05094392571196173
2.8110468507808464	0.09370623008997127
2.812046867447791	0.10059531620048047
2.8130468841147356	0.07765990624366205
2.8140469007816797	0.026002566715332066
2.8150469174486243	0.10226470226693607
2.816046934115569	0.10524872915497771
2.817046950782513	0.07681395617295195
2.8180469674494577	0.10411880912188293
2.8190469841164023	0.05268392060387328
2.8200470007833465	0.09888712713314608
2.821047017450291	0.10413593329463211
2.8220470341172357	0.1281301664508508
2.82304705078418	0.13083173603055967
2.8240470674511244	0.06146400230876999
2.825047084118069	0.12080262360364585
2.826047100785013	0.12801183629722188
2.827047117451958	0.06642557480675454
2.8280471341189024	0.0695757043948196
2.8290471507858466	0.0729059522095233
2.830047167452791	0.0747287829254445
2.8310471841197358	0.04742177359904501
2.83204720078668	0.14527076112953533
2.8330472174536245	0.0242396894655248
2.834047234120569	0.06371807933930501
2.8350472507875133	0.03826056215447577
2.836047267454458	0.0959270260781468
2.837047284121402	0.10834094543626699
2.8380473007883467	0.05485662089061686
2.8390473174552913	0.125988226158498
2.8400473341222354	0.05827344487436444
2.84104735078918	0.03718820671525918
2.8420473674561246	0.05995733170276886
2.843047384123069	0.11587556581948508
2.8440474007900134	0.061376807600834
2.845047417456958	0.05703357008272279
2.846047434123902	0.08080321079491146
2.8470474507908468	0.07708667502961117
2.8480474674577914	0.10743456074105796
2.8490474841247355	0.11813647227622016
2.85004750079168	0.12217122220848363
2.8510475174586247	0.07818073363683054
2.852047534125569	0.10731392601096879
2.8530475507925135	0.038975118033187144
2.854047567459458	0.12437157052174762
2.8550475841264022	0.05129139178929697
2.856047600793347	0.026059479225135407
2.8570476174602915	0.06000281920086174
2.8580476341272356	0.1097448597692049
2.85904765079418	0.14206782674399787
2.8600476674611244	0.13624198377366714
2.861047684128069	0.0766429944777404
2.8620477007950136	0.1064298032677738
2.8630477174619577	0.046595459375557716
2.8640477341289023	0.025890683556196167
2.865047750795847	0.0822636038245384
2.866047767462791	0.11852179505760191
2.8670477841297357	0.04238921617162913
2.8680478007966803	0.04509335912470654
2.8690478174636245	0.05899558773323287
2.870047834130569	0.08675436351282464
2.8710478507975137	0.07555687234634804
2.872047867464458	0.08462814096098817
2.8730478841314024	0.03719826283307857
2.874047900798347	0.08644516305662711
2.875047917465291	0.12241536283979176
2.876047934132236	0.033128840058220366
2.8770479507991804	0.05583931558828241
2.8780479674661246	0.1325199929760496
2.879047984133069	0.1275489872776126
2.8800480008000138	0.06771247982328929
2.881048017466958	0.03859847825551594
2.8820480341339025	0.06229810108688491
2.883048050800847	0.09162882074667918
2.8840480674677913	0.10249051763463685
2.885048084134736	0.08108276036512231
2.88604810080168	0.041471582310777265
2.8870481174686247	0.0895408370130667
2.8880481341355693	0.05762350366759393
2.8890481508025134	0.12177277467309751
2.890048167469458	0.07055224684504945
2.8910481841364026	0.06303543534504369
2.892048200803347	0.10011163062799552
2.8930482174702914	0.10620512656184333
2.894048234137236	0.05117266534278988
2.89504825080418	0.09483171709376267
2.8960482674711248	0.08302156713783607
2.8970482841380694	0.12713247562553487
2.8980483008050135	0.11906864064204613
2.899048317471958	0.12354496176642756
2.9000483341389027	0.1077946843877786
2.901048350805847	0.08797636806586209
2.9020483674727915	0.1136935302000344
2.903048384139736	0.06750308321304724
2.9040484008066803	0.08648501368589494
2.905048417473625	0.0863277202365572
2.9060484341405695	0.1214703032690708
2.9070484508075136	0.045841993374517845
2.908048467474458	0.11235368082090635
2.909048484141403	0.06143590062682901
2.910048500808347	0.06591500487910752
2.9110485174752916	0.09978723696497627
2.9120485341422357	0.06448474045478292
2.9130485508091803	0.0558467614574664
2.914048567476125	0.10092578911544377
2.915048584143069	0.13213998852398323
2.9160486008100137	0.06729675789652483
2.9170486174769583	0.053529497065434035
2.9180486341439025	0.04619174119923707
2.919048650810847	0.016433408325916377
2.9200486674777917	0.09191305096374792
2.921048684144736	0.0846040581944371
2.9220487008116804	0.08883379466849303
2.923048717478625	0.09008993111100083
2.924048734145569	0.051275737960988124
2.925048750812514	0.08287215723388078
2.9260487674794584	0.12073125900253993
2.9270487841464026	0.042617266563353226
2.928048800813347	0.06060390551789495
2.9290488174802918	0.027294926720731902
2.930048834147236	0.04942422245481473
2.9310488508141805	0.08822636551461274
2.932048867481125	0.07339552409615774
2.9330488841480693	0.11619503449034943
2.934048900815014	0.07144304437454725
2.935048917481958	0.05508927296632716
2.9360489341489027	0.11690064569715755
2.9370489508158473	0.051457969314712006
2.9380489674827914	0.024558084166480025
2.939048984149736	0.06154694016483286
2.9400490008166806	0.07122780533543417
2.941049017483625	0.09422206312348623
2.9420490341505694	0.12343988943848147
2.943049050817514	0.08191965852012292
2.944049067484458	0.04149528520562775
2.9450490841514028	0.06475209297986818
2.9460491008183474	0.11585240809805028
2.9470491174852915	0.025996803267050575
2.948049134152236	0.052179618101025234
2.9490491508191807	0.07150992339846089
2.950049167486125	0.12310424969758195
2.9510491841530695	0.10436569239654445
2.952049200820014	0.0859141944043715
2.9530492174869583	0.103315286053277
2.954049234153903	0.0349346397734842
2.9550492508208475	0.07132198989784735
2.9560492674877916	0.11950196351088152
2.9570492841547362	0.08068723388736346
2.958049300821681	0.040835559159899865
2.959049317488625	0.0938403863853175
2.9600493341555696	0.03944823762494035
2.9610493508225137	0.026582412298676354
2.9620493674894584	0.0877100045896614
2.963049384156403	0.0667218410875628
2.964049400823347	0.07233952028386302
2.9650494174902917	0.05686438648763574
2.9660494341572363	0.05221325477527311
2.9670494508241805	0.06891346154930256
2.968049467491125	0.05378464947864286
2.9690494841580697	0.09415209174383764
2.970049500825014	0.11889971166889284
2.9710495174919584	0.07789375109144503
2.972049534158903	0.09372447978453499
2.973049550825847	0.10147077731910997
2.974049567492792	0.02826856341328635
2.9750495841597364	0.046054617112105456
2.9760496008266806	0.10890816382066153
2.977049617493625	0.021210889546833624
2.97804963416057	0.05489009605976152
2.979049650827514	0.10956015142560367
2.9800496674944585	0.033051892595927
2.981049684161403	0.1171439631274744
2.9820497008283473	0.03412812101896028
2.983049717495292	0.037468187486453954
2.9840497341622365	0.03429766595855858
2.9850497508291807	0.032405474878048166
2.9860497674961253	0.10386785971292928
2.9870497841630694	0.08913047139734089
2.988049800830014	0.034866523871450984
2.9890498174969586	0.03546472940212757
2.990049834163903	0.12184598567961787
2.9910498508308474	0.11221532828799204
2.992049867497792	0.09425596967635089
2.993049884164736	0.05102659294743266
2.9940499008316808	0.08214427793911097
2.9950499174986254	0.10998490237287177
2.9960499341655695	0.09436095389433755
2.997049950832514	0.08632654914645788
2.9980499674994587	0.13002033291460174
2.999049984166403	0.09971915914697646
3.0000500008333475	0.02462382616494247
3.001050017500292	0.04969263738026446
3.0020500341672363	0.11678527049870494
3.003050050834181	0.03485442896703362
3.0040500675011255	0.04123433654406123
3.0050500841680696	0.11028580953347646
3.0060501008350142	0.061489283875067316
3.007050117501959	0.08910784350211697
3.008050134168903	0.050894788651464865
3.0090501508358476	0.09314062464779573
3.0100501675027918	0.13876700923287988
3.0110501841697364	0.027828326740177475
3.012050200836681	0.12364271122501357
